Dark spectrum
Integration time [ms]: 100.000
Averaging Nr. [scans]: 1
Smoothing Nr. [pixels]: 0
Data measured with spectrometer [name]: 1401079U1
Wave   ;Sample   ;Dark     ;Reference;Scope
[nm]   ;[counts] ;[counts] ;[counts]

 178.08;   59.000;   59.000;    0.000
 178.43;   57.000;   57.000;    0.000
 178.77;  -45.000;  -45.000;    0.000
 179.12;   19.000;   19.000;    0.000
 179.46;   24.000;   24.000;    0.000
 179.81;   27.000;   27.000;    0.000
 180.15;  -43.000;  -43.000;    0.000
 180.49;  -27.000;  -27.000;    0.000
 180.84;   24.000;   24.000;    0.000
 181.18;  -11.000;  -11.000;    0.000
 181.53;   -6.000;   -6.000;    0.000
 181.87;   64.000;   64.000;    0.000
 182.22;  -31.000;  -31.000;    0.000
 182.56;    3.000;    3.000;    0.000
 182.90;  -27.000;  -27.000;    0.000
 183.25;   28.000;   28.000;    0.000
 183.59;  -56.000;  -56.000;    0.000
 183.94;  -22.000;  -22.000;    0.000
 184.28;   -4.000;   -4.000;    0.000
 184.63;  -86.000;  -86.000;    0.000
 184.97;  -20.000;  -20.000;    0.000
 185.32;  -13.000;  -13.000;    0.000
 185.66;   23.000;   23.000;    0.000
 186.00;   41.000;   41.000;    0.000
 186.35;   -3.000;   -3.000;    0.000
 186.69;   39.000;   39.000;    0.000
 187.04;  -36.000;  -36.000;    0.000
 187.38;   99.000;   99.000;    0.000
 187.72;   -5.000;   -5.000;    0.000
 188.07;    2.000;    2.000;    0.000
 188.41;  -46.000;  -46.000;    0.000
 188.76;    3.000;    3.000;    0.000
 189.10;   38.000;   38.000;    0.000
 189.45;   23.000;   23.000;    0.000
 189.79;    9.000;    9.000;    0.000
 190.13;   42.000;   42.000;    0.000
 190.48;  -28.000;  -28.000;    0.000
 190.82;  -66.000;  -66.000;    0.000
 191.17;    2.000;    2.000;    0.000
 191.51;  -36.000;  -36.000;    0.000
 191.85;  -11.000;  -11.000;    0.000
 192.20;    9.000;    9.000;    0.000
 192.54;  -25.000;  -25.000;    0.000
 192.89;  -24.000;  -24.000;    0.000
 193.23;   32.000;   32.000;    0.000
 193.58;   10.000;   10.000;    0.000
 193.92;   39.000;   39.000;    0.000
 194.26;  -21.000;  -21.000;    0.000
 194.61;  -28.000;  -28.000;    0.000
 194.95;   21.000;   21.000;    0.000
 195.30;  -31.000;  -31.000;    0.000
 195.64;    1.000;    1.000;    0.000
 195.98;   28.000;   28.000;    0.000
 196.33;  -17.000;  -17.000;    0.000
 196.67;    1.000;    1.000;    0.000
 197.02;  -46.000;  -46.000;    0.000
 197.36;  -89.000;  -89.000;    0.000
 197.70;  -33.000;  -33.000;    0.000
 198.05;   38.000;   38.000;    0.000
 198.39;  -60.000;  -60.000;    0.000
 198.74;  -43.000;  -43.000;    0.000
 199.08;  -45.000;  -45.000;    0.000
 199.42;  -14.000;  -14.000;    0.000
 199.77;   20.000;   20.000;    0.000
 200.11;  -18.000;  -18.000;    0.000
 200.45;  -90.000;  -90.000;    0.000
 200.80;   92.000;   92.000;    0.000
 201.14;   74.000;   74.000;    0.000
 201.49;   22.000;   22.000;    0.000
 201.83;  -48.000;  -48.000;    0.000
 202.17;  -53.000;  -53.000;    0.000
 202.52;  -19.000;  -19.000;    0.000
 202.86;  103.000;  103.000;    0.000
 203.21;   22.000;   22.000;    0.000
 203.55;   -8.000;   -8.000;    0.000
 203.89;   53.000;   53.000;    0.000
 204.24;  -59.000;  -59.000;    0.000
 204.58;  -15.000;  -15.000;    0.000
 204.92;   37.000;   37.000;    0.000
 205.27;   -7.000;   -7.000;    0.000
 205.61;    9.000;    9.000;    0.000
 205.96;    8.000;    8.000;    0.000
 206.30;  -29.000;  -29.000;    0.000
 206.64;  -42.000;  -42.000;    0.000
 206.99;    3.000;    3.000;    0.000
 207.33;   62.000;   62.000;    0.000
 207.67; -116.000; -116.000;    0.000
 208.02;   63.000;   63.000;    0.000
 208.36;  -19.000;  -19.000;    0.000
 208.71;  -29.000;  -29.000;    0.000
 209.05;  -59.000;  -59.000;    0.000
 209.39;   11.000;   11.000;    0.000
 209.74;    8.000;    8.000;    0.000
 210.08;   -4.000;   -4.000;    0.000
 210.42; -154.000; -154.000;    0.000
 210.77;  -66.000;  -66.000;    0.000
 211.11;    8.000;    8.000;    0.000
 211.46;   53.000;   53.000;    0.000
 211.80;    2.000;    2.000;    0.000
 212.14;   -6.000;   -6.000;    0.000
 212.49;   81.000;   81.000;    0.000
 212.83;  -29.000;  -29.000;    0.000
 213.17;    1.000;    1.000;    0.000
 213.52;  -22.000;  -22.000;    0.000
 213.86;  -21.000;  -21.000;    0.000
 214.20;  -84.000;  -84.000;    0.000
 214.55;   26.000;   26.000;    0.000
 214.89;   -6.000;   -6.000;    0.000
 215.23;  -17.000;  -17.000;    0.000
 215.58;   15.000;   15.000;    0.000
 215.92;  -70.000;  -70.000;    0.000
 216.27;   28.000;   28.000;    0.000
 216.61;   11.000;   11.000;    0.000
 216.95;  -27.000;  -27.000;    0.000
 217.30;  -26.000;  -26.000;    0.000
 217.64;   34.000;   34.000;    0.000
 217.98;  -56.000;  -56.000;    0.000
 218.33;  -79.000;  -79.000;    0.000
 218.67;  -47.000;  -47.000;    0.000
 219.01;  -32.000;  -32.000;    0.000
 219.36;  -43.000;  -43.000;    0.000
 219.70;   13.000;   13.000;    0.000
 220.04;   -3.000;   -3.000;    0.000
 220.39;  -18.000;  -18.000;    0.000
 220.73;  -90.000;  -90.000;    0.000
 221.07;  -12.000;  -12.000;    0.000
 221.42;   13.000;   13.000;    0.000
 221.76;   38.000;   38.000;    0.000
 222.10;   -7.000;   -7.000;    0.000
 222.45;  -54.000;  -54.000;    0.000
 222.79;   18.000;   18.000;    0.000
 223.13;   22.000;   22.000;    0.000
 223.48;  -23.000;  -23.000;    0.000
 223.82;   -4.000;   -4.000;    0.000
 224.16;   37.000;   37.000;    0.000
 224.51;  -68.000;  -68.000;    0.000
 224.85;   75.000;   75.000;    0.000
 225.19;   26.000;   26.000;    0.000
 225.54;    0.000;    0.000;    0.000
 225.88;    0.000;    0.000;    0.000
 226.22;   30.000;   30.000;    0.000
 226.57;   59.000;   59.000;    0.000
 226.91;  -39.000;  -39.000;    0.000
 227.25;  -53.000;  -53.000;    0.000
 227.60;   -4.000;   -4.000;    0.000
 227.94;   -4.000;   -4.000;    0.000
 228.28; -110.000; -110.000;    0.000
 228.63;   46.000;   46.000;    0.000
 228.97;   26.000;   26.000;    0.000
 229.31;  -45.000;  -45.000;    0.000
 229.66;    0.000;    0.000;    0.000
 230.00;   76.000;   76.000;    0.000
 230.34;  -23.000;  -23.000;    0.000
 230.69;  -32.000;  -32.000;    0.000
 231.03; -102.000; -102.000;    0.000
 231.37;   77.000;   77.000;    0.000
 231.71;  -14.000;  -14.000;    0.000
 232.06;  -22.000;  -22.000;    0.000
 232.40;  154.000;  154.000;    0.000
 232.74;  -88.000;  -88.000;    0.000
 233.09;    1.000;    1.000;    0.000
 233.43;  -16.000;  -16.000;    0.000
 233.77; -119.000; -119.000;    0.000
 234.12;   96.000;   96.000;    0.000
 234.46;    4.000;    4.000;    0.000
 234.80;   94.000;   94.000;    0.000
 235.15;  -22.000;  -22.000;    0.000
 235.49;  -98.000;  -98.000;    0.000
 235.83;  -32.000;  -32.000;    0.000
 236.17;  -47.000;  -47.000;    0.000
 236.52; -117.000; -117.000;    0.000
 236.86;   42.000;   42.000;    0.000
 237.20;  -61.000;  -61.000;    0.000
 237.55;   45.000;   45.000;    0.000
 237.89;  -21.000;  -21.000;    0.000
 238.23;  -41.000;  -41.000;    0.000
 238.58;  -45.000;  -45.000;    0.000
 238.92;  -29.000;  -29.000;    0.000
 239.26;  -13.000;  -13.000;    0.000
 239.60;  -37.000;  -37.000;    0.000
 239.95;   18.000;   18.000;    0.000
 240.29;  -63.000;  -63.000;    0.000
 240.63;   18.000;   18.000;    0.000
 240.98;    5.000;    5.000;    0.000
 241.32;   16.000;   16.000;    0.000
 241.66;  -14.000;  -14.000;    0.000
 242.00;   17.000;   17.000;    0.000
 242.35;  -32.000;  -32.000;    0.000
 242.69;   39.000;   39.000;    0.000
 243.03;   37.000;   37.000;    0.000
 243.38;  -37.000;  -37.000;    0.000
 243.72;  -48.000;  -48.000;    0.000
 244.06;  -56.000;  -56.000;    0.000
 244.40;  -11.000;  -11.000;    0.000
 244.75;  -49.000;  -49.000;    0.000
 245.09;  -23.000;  -23.000;    0.000
 245.43;    0.000;    0.000;    0.000
 245.78;   11.000;   11.000;    0.000
 246.12;   99.000;   99.000;    0.000
 246.46;   -9.000;   -9.000;    0.000
 246.80;  -31.000;  -31.000;    0.000
 247.15;  -45.000;  -45.000;    0.000
 247.49;    8.000;    8.000;    0.000
 247.83;   81.000;   81.000;    0.000
 248.17;  -36.000;  -36.000;    0.000
 248.52;  -44.000;  -44.000;    0.000
 248.86;   -8.000;   -8.000;    0.000
 249.20;   67.000;   67.000;    0.000
 249.55;    5.000;    5.000;    0.000
 249.89;  -17.000;  -17.000;    0.000
 250.23;   -8.000;   -8.000;    0.000
 250.57;  -13.000;  -13.000;    0.000
 250.92;  -38.000;  -38.000;    0.000
 251.26;  -36.000;  -36.000;    0.000
 251.60;    0.000;    0.000;    0.000
 251.94;    1.000;    1.000;    0.000
 252.29;   10.000;   10.000;    0.000
 252.63;    2.000;    2.000;    0.000
 252.97;  -20.000;  -20.000;    0.000
 253.31;  -53.000;  -53.000;    0.000
 253.66;   39.000;   39.000;    0.000
 254.00;    0.000;    0.000;    0.000
 254.34;  -45.000;  -45.000;    0.000
 254.68;   47.000;   47.000;    0.000
 255.03;   38.000;   38.000;    0.000
 255.37;  -29.000;  -29.000;    0.000
 255.71;  -34.000;  -34.000;    0.000
 256.05;    3.000;    3.000;    0.000
 256.40;   24.000;   24.000;    0.000
 256.74;    0.000;    0.000;    0.000
 257.08;    4.000;    4.000;    0.000
 257.42;  -28.000;  -28.000;    0.000
 257.77;  -74.000;  -74.000;    0.000
 258.11;   33.000;   33.000;    0.000
 258.45;   12.000;   12.000;    0.000
 258.79;  -33.000;  -33.000;    0.000
 259.14;  -30.000;  -30.000;    0.000
 259.48;  -36.000;  -36.000;    0.000
 259.82;   -1.000;   -1.000;    0.000
 260.16;   37.000;   37.000;    0.000
 260.51;  -60.000;  -60.000;    0.000
 260.85;   -2.000;   -2.000;    0.000
 261.19;  -52.000;  -52.000;    0.000
 261.53;  -17.000;  -17.000;    0.000
 261.88;   37.000;   37.000;    0.000
 262.22;   23.000;   23.000;    0.000
 262.56;  -89.000;  -89.000;    0.000
 262.90;  -81.000;  -81.000;    0.000
 263.24;   20.000;   20.000;    0.000
 263.59;  -46.000;  -46.000;    0.000
 263.93;  -66.000;  -66.000;    0.000
 264.27;  -51.000;  -51.000;    0.000
 264.61;   -6.000;   -6.000;    0.000
 264.96;   39.000;   39.000;    0.000
 265.30;   15.000;   15.000;    0.000
 265.64;  -70.000;  -70.000;    0.000
 265.98;  -43.000;  -43.000;    0.000
 266.33;  -26.000;  -26.000;    0.000
 266.67;   34.000;   34.000;    0.000
 267.01;  -61.000;  -61.000;    0.000
 267.35;  -59.000;  -59.000;    0.000
 267.69;  -32.000;  -32.000;    0.000
 268.04;  -63.000;  -63.000;    0.000
 268.38;   46.000;   46.000;    0.000
 268.72;   40.000;   40.000;    0.000
 269.06;    4.000;    4.000;    0.000
 269.41;   26.000;   26.000;    0.000
 269.75;  -20.000;  -20.000;    0.000
 270.09;  -83.000;  -83.000;    0.000
 270.43;  -67.000;  -67.000;    0.000
 270.77;  -38.000;  -38.000;    0.000
 271.12;    6.000;    6.000;    0.000
 271.46;  -16.000;  -16.000;    0.000
 271.80;  -66.000;  -66.000;    0.000
 272.14;   13.000;   13.000;    0.000
 272.48;   46.000;   46.000;    0.000
 272.83;  -53.000;  -53.000;    0.000
 273.17;  -77.000;  -77.000;    0.000
 273.51;  -33.000;  -33.000;    0.000
 273.85;  -10.000;  -10.000;    0.000
 274.19;   33.000;   33.000;    0.000
 274.54;  -55.000;  -55.000;    0.000
 274.88;    2.000;    2.000;    0.000
 275.22;   65.000;   65.000;    0.000
 275.56;  -33.000;  -33.000;    0.000
 275.90;  -44.000;  -44.000;    0.000
 276.25;  -27.000;  -27.000;    0.000
 276.59;   -2.000;   -2.000;    0.000
 276.93;  -47.000;  -47.000;    0.000
 277.27;   11.000;   11.000;    0.000
 277.61;  -52.000;  -52.000;    0.000
 277.96;  108.000;  108.000;    0.000
 278.30;   55.000;   55.000;    0.000
 278.64;  -88.000;  -88.000;    0.000
 278.98;  -20.000;  -20.000;    0.000
 279.32;   99.000;   99.000;    0.000
 279.67;  -34.000;  -34.000;    0.000
 280.01;   41.000;   41.000;    0.000
 280.35;   48.000;   48.000;    0.000
 280.69;  -15.000;  -15.000;    0.000
 281.03;    4.000;    4.000;    0.000
 281.37;  -46.000;  -46.000;    0.000
 281.72;    3.000;    3.000;    0.000
 282.06;  -43.000;  -43.000;    0.000
 282.40;  -19.000;  -19.000;    0.000
 282.74;  -49.000;  -49.000;    0.000
 283.08;  -53.000;  -53.000;    0.000
 283.43;  105.000;  105.000;    0.000
 283.77;  -31.000;  -31.000;    0.000
 284.11;  -70.000;  -70.000;    0.000
 284.45;  -24.000;  -24.000;    0.000
 284.79;   49.000;   49.000;    0.000
 285.13;    3.000;    3.000;    0.000
 285.48;   90.000;   90.000;    0.000
 285.82;    9.000;    9.000;    0.000
 286.16;  -37.000;  -37.000;    0.000
 286.50;  -43.000;  -43.000;    0.000
 286.84;   -5.000;   -5.000;    0.000
 287.18;  -49.000;  -49.000;    0.000
 287.53;   22.000;   22.000;    0.000
 287.87;   66.000;   66.000;    0.000
 288.21;   52.000;   52.000;    0.000
 288.55;  -52.000;  -52.000;    0.000
 288.89;  -83.000;  -83.000;    0.000
 289.23;    7.000;    7.000;    0.000
 289.58;   86.000;   86.000;    0.000
 289.92;  -42.000;  -42.000;    0.000
 290.26;   23.000;   23.000;    0.000
 290.60;  -53.000;  -53.000;    0.000
 290.94;   15.000;   15.000;    0.000
 291.28;  -37.000;  -37.000;    0.000
 291.63;  -38.000;  -38.000;    0.000
 291.97;  -60.000;  -60.000;    0.000
 292.31;  -17.000;  -17.000;    0.000
 292.65;   56.000;   56.000;    0.000
 292.99;   49.000;   49.000;    0.000
 293.33;  -11.000;  -11.000;    0.000
 293.68;  -17.000;  -17.000;    0.000
 294.02;   98.000;   98.000;    0.000
 294.36;  -47.000;  -47.000;    0.000
 294.70;  -55.000;  -55.000;    0.000
 295.04;    8.000;    8.000;    0.000
 295.38;    8.000;    8.000;    0.000
 295.72;   92.000;   92.000;    0.000
 296.07;  -25.000;  -25.000;    0.000
 296.41;  -36.000;  -36.000;    0.000
 296.75;   26.000;   26.000;    0.000
 297.09;   29.000;   29.000;    0.000
 297.43;  -18.000;  -18.000;    0.000
 297.77;  -33.000;  -33.000;    0.000
 298.11;  -92.000;  -92.000;    0.000
 298.46;   -2.000;   -2.000;    0.000
 298.80;   65.000;   65.000;    0.000
 299.14;  -30.000;  -30.000;    0.000
 299.48;   54.000;   54.000;    0.000
 299.82;   27.000;   27.000;    0.000
 300.16;  -49.000;  -49.000;    0.000
 300.50;  -18.000;  -18.000;    0.000
 300.84;   15.000;   15.000;    0.000
 301.19;    4.000;    4.000;    0.000
 301.53;  -78.000;  -78.000;    0.000
 301.87;  -45.000;  -45.000;    0.000
 302.21;  -49.000;  -49.000;    0.000
 302.55;   61.000;   61.000;    0.000
 302.89;   16.000;   16.000;    0.000
 303.23;  -18.000;  -18.000;    0.000
 303.57;   18.000;   18.000;    0.000
 303.92;   -9.000;   -9.000;    0.000
 304.26;   -1.000;   -1.000;    0.000
 304.60;   77.000;   77.000;    0.000
 304.94;   63.000;   63.000;    0.000
 305.28;    6.000;    6.000;    0.000
 305.62;  -64.000;  -64.000;    0.000
 305.96;  103.000;  103.000;    0.000
 306.30;   -5.000;   -5.000;    0.000
 306.65;   17.000;   17.000;    0.000
 306.99;   45.000;   45.000;    0.000
 307.33;  137.000;  137.000;    0.000
 307.67;    4.000;    4.000;    0.000
 308.01;   35.000;   35.000;    0.000
 308.35;   57.000;   57.000;    0.000
 308.69;   48.000;   48.000;    0.000
 309.03;   97.000;   97.000;    0.000
 309.37;  115.000;  115.000;    0.000
 309.72;   58.000;   58.000;    0.000
 310.06;   56.000;   56.000;    0.000
 310.40;  114.000;  114.000;    0.000
 310.74;  206.000;  206.000;    0.000
 311.08;   46.000;   46.000;    0.000
 311.42;  116.000;  116.000;    0.000
 311.76;  120.000;  120.000;    0.000
 312.10;   64.000;   64.000;    0.000
 312.44;   89.000;   89.000;    0.000
 312.78;   18.000;   18.000;    0.000
 313.13;   40.000;   40.000;    0.000
 313.47;  111.000;  111.000;    0.000
 313.81;  -52.000;  -52.000;    0.000
 314.15;   82.000;   82.000;    0.000
 314.49;  115.000;  115.000;    0.000
 314.83;   73.000;   73.000;    0.000
 315.17;   -4.000;   -4.000;    0.000
 315.51;   17.000;   17.000;    0.000
 315.85;   41.000;   41.000;    0.000
 316.19;   31.000;   31.000;    0.000
 316.54;   71.000;   71.000;    0.000
 316.88;   69.000;   69.000;    0.000
 317.22;   75.000;   75.000;    0.000
 317.56;   70.000;   70.000;    0.000
 317.90;  104.000;  104.000;    0.000
 318.24;  103.000;  103.000;    0.000
 318.58;   55.000;   55.000;    0.000
 318.92;   37.000;   37.000;    0.000
 319.26;   31.000;   31.000;    0.000
 319.60;  -39.000;  -39.000;    0.000
 319.94;   32.000;   32.000;    0.000
 320.28;   25.000;   25.000;    0.000
 320.62;   -3.000;   -3.000;    0.000
 320.97;  149.000;  149.000;    0.000
 321.31;  111.000;  111.000;    0.000
 321.65;  113.000;  113.000;    0.000
 321.99;   65.000;   65.000;    0.000
 322.33;   26.000;   26.000;    0.000
 322.67;   31.000;   31.000;    0.000
 323.01;   73.000;   73.000;    0.000
 323.35;   77.000;   77.000;    0.000
 323.69;   36.000;   36.000;    0.000
 324.03;   23.000;   23.000;    0.000
 324.37;   47.000;   47.000;    0.000
 324.71;   89.000;   89.000;    0.000
 325.05;  118.000;  118.000;    0.000
 325.39;    0.000;    0.000;    0.000
 325.74;   75.000;   75.000;    0.000
 326.08;  128.000;  128.000;    0.000
 326.42;  146.000;  146.000;    0.000
 326.76;  -39.000;  -39.000;    0.000
 327.10;   -3.000;   -3.000;    0.000
 327.44;    4.000;    4.000;    0.000
 327.78;  125.000;  125.000;    0.000
 328.12;  113.000;  113.000;    0.000
 328.46;   86.000;   86.000;    0.000
 328.80;  203.000;  203.000;    0.000
 329.14;  103.000;  103.000;    0.000
 329.48;  137.000;  137.000;    0.000
 329.82;  238.000;  238.000;    0.000
 330.16;  135.000;  135.000;    0.000
 330.50;  103.000;  103.000;    0.000
 330.84;   82.000;   82.000;    0.000
 331.18;   88.000;   88.000;    0.000
 331.52;  111.000;  111.000;    0.000
 331.87;  -19.000;  -19.000;    0.000
 332.21;    4.000;    4.000;    0.000
 332.55;   34.000;   34.000;    0.000
 332.89;    2.000;    2.000;    0.000
 333.23;  113.000;  113.000;    0.000
 333.57;   11.000;   11.000;    0.000
 333.91;  153.000;  153.000;    0.000
 334.25;  143.000;  143.000;    0.000
 334.59;   66.000;   66.000;    0.000
 334.93;   -9.000;   -9.000;    0.000
 335.27;  123.000;  123.000;    0.000
 335.61;   37.000;   37.000;    0.000
 335.95;  241.000;  241.000;    0.000
 336.29;  111.000;  111.000;    0.000
 336.63;   93.000;   93.000;    0.000
 336.97;   46.000;   46.000;    0.000
 337.31;  -14.000;  -14.000;    0.000
 337.65;  117.000;  117.000;    0.000
 337.99;   57.000;   57.000;    0.000
 338.33;   65.000;   65.000;    0.000
 338.67;  140.000;  140.000;    0.000
 339.01;  109.000;  109.000;    0.000
 339.35;   24.000;   24.000;    0.000
 339.69;   53.000;   53.000;    0.000
 340.03;  138.000;  138.000;    0.000
 340.37;   50.000;   50.000;    0.000
 340.71;   18.000;   18.000;    0.000
 341.05;  132.000;  132.000;    0.000
 341.39;   92.000;   92.000;    0.000
 341.73;   95.000;   95.000;    0.000
 342.07;   62.000;   62.000;    0.000
 342.41;    7.000;    7.000;    0.000
 342.75;   63.000;   63.000;    0.000
 343.09;  110.000;  110.000;    0.000
 343.43;  117.000;  117.000;    0.000
 343.78;   77.000;   77.000;    0.000
 344.12;   19.000;   19.000;    0.000
 344.46;   10.000;   10.000;    0.000
 344.80;   18.000;   18.000;    0.000
 345.14;    1.000;    1.000;    0.000
 345.48;  104.000;  104.000;    0.000
 345.82;   18.000;   18.000;    0.000
 346.16;  102.000;  102.000;    0.000
 346.50;  -15.000;  -15.000;    0.000
 346.84;   86.000;   86.000;    0.000
 347.18;   20.000;   20.000;    0.000
 347.52;   68.000;   68.000;    0.000
 347.86;   -5.000;   -5.000;    0.000
 348.20;   40.000;   40.000;    0.000
 348.54;   35.000;   35.000;    0.000
 348.88;   73.000;   73.000;    0.000
 349.22;   92.000;   92.000;    0.000
 349.56;   61.000;   61.000;    0.000
 349.90;    6.000;    6.000;    0.000
 350.24;  -69.000;  -69.000;    0.000
 350.58;   45.000;   45.000;    0.000
 350.92;   61.000;   61.000;    0.000
 351.26;  119.000;  119.000;    0.000
 351.60;   58.000;   58.000;    0.000
 351.94;   38.000;   38.000;    0.000
 352.27;   76.000;   76.000;    0.000
 352.61;   67.000;   67.000;    0.000
 352.95;   17.000;   17.000;    0.000
 353.29;   73.000;   73.000;    0.000
 353.63;   20.000;   20.000;    0.000
 353.97;   28.000;   28.000;    0.000
 354.31;   63.000;   63.000;    0.000
 354.65;   75.000;   75.000;    0.000
 354.99;  158.000;  158.000;    0.000
 355.33;  100.000;  100.000;    0.000
 355.67;   -9.000;   -9.000;    0.000
 356.01;   34.000;   34.000;    0.000
 356.35;   33.000;   33.000;    0.000
 356.69;    1.000;    1.000;    0.000
 357.03;   89.000;   89.000;    0.000
 357.37;   14.000;   14.000;    0.000
 357.71;   40.000;   40.000;    0.000
 358.05;  -15.000;  -15.000;    0.000
 358.39;   68.000;   68.000;    0.000
 358.73;  -19.000;  -19.000;    0.000
 359.07;  132.000;  132.000;    0.000
 359.41;   34.000;   34.000;    0.000
 359.75;  136.000;  136.000;    0.000
 360.09;   20.000;   20.000;    0.000
 360.43;   28.000;   28.000;    0.000
 360.77;    4.000;    4.000;    0.000
 361.11;   40.000;   40.000;    0.000
 361.45;   76.000;   76.000;    0.000
 361.79;   73.000;   73.000;    0.000
 362.13;   62.000;   62.000;    0.000
 362.47;   77.000;   77.000;    0.000
 362.81;   46.000;   46.000;    0.000
 363.15;  143.000;  143.000;    0.000
 363.49;   33.000;   33.000;    0.000
 363.83;   26.000;   26.000;    0.000
 364.16;   87.000;   87.000;    0.000
 364.50;   12.000;   12.000;    0.000
 364.84;   90.000;   90.000;    0.000
 365.18;  -14.000;  -14.000;    0.000
 365.52;  201.000;  201.000;    0.000
 365.86;   73.000;   73.000;    0.000
 366.20;  120.000;  120.000;    0.000
 366.54;   66.000;   66.000;    0.000
 366.88;   55.000;   55.000;    0.000
 367.22;  -10.000;  -10.000;    0.000
 367.56;  113.000;  113.000;    0.000
 367.90;    1.000;    1.000;    0.000
 368.24;   33.000;   33.000;    0.000
 368.58;   95.000;   95.000;    0.000
 368.92;   57.000;   57.000;    0.000
 369.26;   74.000;   74.000;    0.000
 369.60;   99.000;   99.000;    0.000
 369.94;   14.000;   14.000;    0.000
 370.27;   30.000;   30.000;    0.000
 370.61;   66.000;   66.000;    0.000
 370.95;   17.000;   17.000;    0.000
 371.29;   71.000;   71.000;    0.000
 371.63; -111.000; -111.000;    0.000
 371.97;  118.000;  118.000;    0.000
 372.31;   73.000;   73.000;    0.000
 372.65;    6.000;    6.000;    0.000
 372.99;  104.000;  104.000;    0.000
 373.33;  140.000;  140.000;    0.000
 373.67;   -1.000;   -1.000;    0.000
 374.01;   32.000;   32.000;    0.000
 374.35;  -21.000;  -21.000;    0.000
 374.69;    5.000;    5.000;    0.000
 375.02;  -18.000;  -18.000;    0.000
 375.36;   85.000;   85.000;    0.000
 375.70;   30.000;   30.000;    0.000
 376.04;   61.000;   61.000;    0.000
 376.38;   21.000;   21.000;    0.000
 376.72;  -20.000;  -20.000;    0.000
 377.06;    1.000;    1.000;    0.000
 377.40;  -12.000;  -12.000;    0.000
 377.74;  121.000;  121.000;    0.000
 378.08;   82.000;   82.000;    0.000
 378.42;   66.000;   66.000;    0.000
 378.76;   34.000;   34.000;    0.000
 379.09;  -22.000;  -22.000;    0.000
 379.43;   64.000;   64.000;    0.000
 379.77;   31.000;   31.000;    0.000
 380.11;   72.000;   72.000;    0.000
 380.45;   51.000;   51.000;    0.000
 380.79;   10.000;   10.000;    0.000
 381.13;   24.000;   24.000;    0.000
 381.47;   23.000;   23.000;    0.000
 381.81;   62.000;   62.000;    0.000
 382.15;  117.000;  117.000;    0.000
 382.48;   47.000;   47.000;    0.000
 382.82;  -23.000;  -23.000;    0.000
 383.16;  194.000;  194.000;    0.000
 383.50;   76.000;   76.000;    0.000
 383.84;   29.000;   29.000;    0.000
 384.18;   69.000;   69.000;    0.000
 384.52;  245.000;  245.000;    0.000
 384.86;  154.000;  154.000;    0.000
 385.20;  320.000;  320.000;    0.000
 385.54;    8.000;    8.000;    0.000
 385.87;  143.000;  143.000;    0.000
 386.21;  204.000;  204.000;    0.000
 386.55;  229.000;  229.000;    0.000
 386.89;  161.000;  161.000;    0.000
 387.23;  128.000;  128.000;    0.000
 387.57;   25.000;   25.000;    0.000
 387.91;  142.000;  142.000;    0.000
 388.25;  102.000;  102.000;    0.000
 388.59;   45.000;   45.000;    0.000
 388.92;  211.000;  211.000;    0.000
 389.26;  149.000;  149.000;    0.000
 389.60;  198.000;  198.000;    0.000
 389.94;   25.000;   25.000;    0.000
 390.28;  168.000;  168.000;    0.000
 390.62;  142.000;  142.000;    0.000
 390.96;   56.000;   56.000;    0.000
 391.30;   85.000;   85.000;    0.000
 391.63;   12.000;   12.000;    0.000
 391.97;  104.000;  104.000;    0.000
 392.31;   20.000;   20.000;    0.000
 392.65;   88.000;   88.000;    0.000
 392.99;   82.000;   82.000;    0.000
 393.33;   56.000;   56.000;    0.000
 393.67;   43.000;   43.000;    0.000
 394.00; -112.000; -112.000;    0.000
 394.34;    5.000;    5.000;    0.000
 394.68;   17.000;   17.000;    0.000
 395.02;    3.000;    3.000;    0.000
 395.36;   14.000;   14.000;    0.000
 395.70;   37.000;   37.000;    0.000
 396.04;   53.000;   53.000;    0.000
 396.38;   42.000;   42.000;    0.000
 396.71;  142.000;  142.000;    0.000
 397.05;  176.000;  176.000;    0.000
 397.39;  159.000;  159.000;    0.000
 397.73;   98.000;   98.000;    0.000
 398.07;   93.000;   93.000;    0.000
 398.41;  110.000;  110.000;    0.000
 398.74;  168.000;  168.000;    0.000
 399.08;   73.000;   73.000;    0.000
 399.42;  189.000;  189.000;    0.000
 399.76;  206.000;  206.000;    0.000
 400.10;   85.000;   85.000;    0.000
 400.44;   33.000;   33.000;    0.000
 400.78;   77.000;   77.000;    0.000
 401.11;   12.000;   12.000;    0.000
 401.45;   83.000;   83.000;    0.000
 401.79;   74.000;   74.000;    0.000
 402.13;  103.000;  103.000;    0.000
 402.47;   16.000;   16.000;    0.000
 402.81;  -14.000;  -14.000;    0.000
 403.14;  115.000;  115.000;    0.000
 403.48;   47.000;   47.000;    0.000
 403.82;   51.000;   51.000;    0.000
 404.16;   -6.000;   -6.000;    0.000
 404.50;   50.000;   50.000;    0.000
 404.84;    8.000;    8.000;    0.000
 405.17;   11.000;   11.000;    0.000
 405.51;   92.000;   92.000;    0.000
 405.85;   58.000;   58.000;    0.000
 406.19;  179.000;  179.000;    0.000
 406.53;  139.000;  139.000;    0.000
 406.87;  134.000;  134.000;    0.000
 407.20;  125.000;  125.000;    0.000
 407.54;  129.000;  129.000;    0.000
 407.88;  167.000;  167.000;    0.000
 408.22;   42.000;   42.000;    0.000
 408.56;  230.000;  230.000;    0.000
 408.90;   83.000;   83.000;    0.000
 409.23;   28.000;   28.000;    0.000
 409.57;  106.000;  106.000;    0.000
 409.91; 1812.000; 1812.000;    0.000
 410.25; 1081.000; 1081.000;    0.000
 410.59;  159.000;  159.000;    0.000
 410.92;   34.000;   34.000;    0.000
 411.26;  -26.000;  -26.000;    0.000
 411.60;   96.000;   96.000;    0.000
 411.94;   66.000;   66.000;    0.000
 412.28;   78.000;   78.000;    0.000
 412.62;   18.000;   18.000;    0.000
 412.95;  -33.000;  -33.000;    0.000
 413.29;   65.000;   65.000;    0.000
 413.63;  -27.000;  -27.000;    0.000
 413.97;   24.000;   24.000;    0.000
 414.31;  137.000;  137.000;    0.000
 414.64;  145.000;  145.000;    0.000
 414.98;   71.000;   71.000;    0.000
 415.32;  166.000;  166.000;    0.000
 415.66;  122.000;  122.000;    0.000
 416.00;  132.000;  132.000;    0.000
 416.33;  109.000;  109.000;    0.000
 416.67;   17.000;   17.000;    0.000
 417.01;  125.000;  125.000;    0.000
 417.35;   68.000;   68.000;    0.000
 417.69;   32.000;   32.000;    0.000
 418.02;   86.000;   86.000;    0.000
 418.36;  139.000;  139.000;    0.000
 418.70;   12.000;   12.000;    0.000
 419.04;   82.000;   82.000;    0.000
 419.38;   67.000;   67.000;    0.000
 419.71;   -7.000;   -7.000;    0.000
 420.05;   41.000;   41.000;    0.000
 420.39;   84.000;   84.000;    0.000
 420.73;  216.000;  216.000;    0.000
 421.06;   54.000;   54.000;    0.000
 421.40;    4.000;    4.000;    0.000
 421.74;  -31.000;  -31.000;    0.000
 422.08;   83.000;   83.000;    0.000
 422.42;   42.000;   42.000;    0.000
 422.75;   96.000;   96.000;    0.000
 423.09;   30.000;   30.000;    0.000
 423.43;   12.000;   12.000;    0.000
 423.77;  178.000;  178.000;    0.000
 424.10;   20.000;   20.000;    0.000
 424.44;   92.000;   92.000;    0.000
 424.78;   58.000;   58.000;    0.000
 425.12;   -4.000;   -4.000;    0.000
 425.46;   44.000;   44.000;    0.000
 425.79;   -2.000;   -2.000;    0.000
 426.13;   43.000;   43.000;    0.000
 426.47;   65.000;   65.000;    0.000
 426.81;  191.000;  191.000;    0.000
 427.14;   76.000;   76.000;    0.000
 427.48;   64.000;   64.000;    0.000
 427.82;   30.000;   30.000;    0.000
 428.16;   62.000;   62.000;    0.000
 428.49;  134.000;  134.000;    0.000
 428.83;  159.000;  159.000;    0.000
 429.17;  136.000;  136.000;    0.000
 429.51;  198.000;  198.000;    0.000
 429.84;  207.000;  207.000;    0.000
 430.18;  198.000;  198.000;    0.000
 430.52;  220.000;  220.000;    0.000
 430.86;  265.000;  265.000;    0.000
 431.19;  391.000;  391.000;    0.000
 431.53;   41.000;   41.000;    0.000
 431.87;   97.000;   97.000;    0.000
 432.21;  -29.000;  -29.000;    0.000
 432.54;    1.000;    1.000;    0.000
 432.88;   19.000;   19.000;    0.000
 433.22;  513.000;  513.000;    0.000
 433.56; 5568.000; 5568.000;    0.000
 433.89;14844.000;14844.000;    0.000
 434.23; 9422.000; 9422.000;    0.000
 434.57; 1274.000; 1274.000;    0.000
 434.91;  234.000;  234.000;    0.000
 435.24;  168.000;  168.000;    0.000
 435.58;   53.000;   53.000;    0.000
 435.92;   15.000;   15.000;    0.000
 436.26;   46.000;   46.000;    0.000
 436.59;   47.000;   47.000;    0.000
 436.93;   35.000;   35.000;    0.000
 437.27;   25.000;   25.000;    0.000
 437.61;   49.000;   49.000;    0.000
 437.94;   23.000;   23.000;    0.000
 438.28;   21.000;   21.000;    0.000
 438.62;   36.000;   36.000;    0.000
 438.95;   42.000;   42.000;    0.000
 439.29;   53.000;   53.000;    0.000
 439.63;   43.000;   43.000;    0.000
 439.97;   81.000;   81.000;    0.000
 440.30;   69.000;   69.000;    0.000
 440.64;    3.000;    3.000;    0.000
 440.98;  110.000;  110.000;    0.000
 441.32;  242.000;  242.000;    0.000
 441.65;  104.000;  104.000;    0.000
 441.99;  155.000;  155.000;    0.000
 442.33;   77.000;   77.000;    0.000
 442.66;   35.000;   35.000;    0.000
 443.00;   -4.000;   -4.000;    0.000
 443.34;   96.000;   96.000;    0.000
 443.68;   13.000;   13.000;    0.000
 444.01;   23.000;   23.000;    0.000
 444.35;  111.000;  111.000;    0.000
 444.69;  134.000;  134.000;    0.000
 445.02;   85.000;   85.000;    0.000
 445.36;   29.000;   29.000;    0.000
 445.70;   59.000;   59.000;    0.000
 446.04;  116.000;  116.000;    0.000
 446.37;    6.000;    6.000;    0.000
 446.71;   89.000;   89.000;    0.000
 447.05;   44.000;   44.000;    0.000
 447.38;   38.000;   38.000;    0.000
 447.72;   35.000;   35.000;    0.000
 448.06;  105.000;  105.000;    0.000
 448.39;   40.000;   40.000;    0.000
 448.73;   42.000;   42.000;    0.000
 449.07;  240.000;  240.000;    0.000
 449.41;  140.000;  140.000;    0.000
 449.74;  -12.000;  -12.000;    0.000
 450.08;   58.000;   58.000;    0.000
 450.42;   52.000;   52.000;    0.000
 450.75;   16.000;   16.000;    0.000
 451.09;   33.000;   33.000;    0.000
 451.43;   30.000;   30.000;    0.000
 451.76;    0.000;    0.000;    0.000
 452.10;  114.000;  114.000;    0.000
 452.44;   -3.000;   -3.000;    0.000
 452.77;   39.000;   39.000;    0.000
 453.11;    2.000;    2.000;    0.000
 453.45;   52.000;   52.000;    0.000
 453.78;   72.000;   72.000;    0.000
 454.12;   27.000;   27.000;    0.000
 454.46;   71.000;   71.000;    0.000
 454.80;   89.000;   89.000;    0.000
 455.13;  197.000;  197.000;    0.000
 455.47;  -76.000;  -76.000;    0.000
 455.81;  261.000;  261.000;    0.000
 456.14;   72.000;   72.000;    0.000
 456.48;   10.000;   10.000;    0.000
 456.82;   77.000;   77.000;    0.000
 457.15;  149.000;  149.000;    0.000
 457.49;  227.000;  227.000;    0.000
 457.83;  291.000;  291.000;    0.000
 458.16;  281.000;  281.000;    0.000
 458.50;    4.000;    4.000;    0.000
 458.84;   67.000;   67.000;    0.000
 459.17;  -17.000;  -17.000;    0.000
 459.51;   26.000;   26.000;    0.000
 459.85;   76.000;   76.000;    0.000
 460.18;    2.000;    2.000;    0.000
 460.52;   23.000;   23.000;    0.000
 460.86;   88.000;   88.000;    0.000
 461.19;   32.000;   32.000;    0.000
 461.53;   44.000;   44.000;    0.000
 461.87;  -24.000;  -24.000;    0.000
 462.20;   20.000;   20.000;    0.000
 462.54;   61.000;   61.000;    0.000
 462.87;  474.000;  474.000;    0.000
 463.21;  575.000;  575.000;    0.000
 463.55;  204.000;  204.000;    0.000
 463.88;  161.000;  161.000;    0.000
 464.22;   73.000;   73.000;    0.000
 464.56;  102.000;  102.000;    0.000
 464.89;  140.000;  140.000;    0.000
 465.23;   73.000;   73.000;    0.000
 465.57;  125.000;  125.000;    0.000
 465.90;   20.000;   20.000;    0.000
 466.24;   53.000;   53.000;    0.000
 466.58;  -27.000;  -27.000;    0.000
 466.91;   83.000;   83.000;    0.000
 467.25;   64.000;   64.000;    0.000
 467.58;   52.000;   52.000;    0.000
 467.92;  102.000;  102.000;    0.000
 468.26;  177.000;  177.000;    0.000
 468.59;  157.000;  157.000;    0.000
 468.93;   70.000;   70.000;    0.000
 469.27;   39.000;   39.000;    0.000
 469.60;   21.000;   21.000;    0.000
 469.94;  -30.000;  -30.000;    0.000
 470.28;  115.000;  115.000;    0.000
 470.61;   36.000;   36.000;    0.000
 470.95;   64.000;   64.000;    0.000
 471.28;   56.000;   56.000;    0.000
 471.62;  191.000;  191.000;    0.000
 471.96;   25.000;   25.000;    0.000
 472.29;   92.000;   92.000;    0.000
 472.63;   23.000;   23.000;    0.000
 472.97;   34.000;   34.000;    0.000
 473.30;   23.000;   23.000;    0.000
 473.64;  -19.000;  -19.000;    0.000
 473.97;  -45.000;  -45.000;    0.000
 474.31;  122.000;  122.000;    0.000
 474.65;  -34.000;  -34.000;    0.000
 474.98;   84.000;   84.000;    0.000
 475.32;  -30.000;  -30.000;    0.000
 475.65;   60.000;   60.000;    0.000
 475.99;   86.000;   86.000;    0.000
 476.33;   13.000;   13.000;    0.000
 476.66;   -7.000;   -7.000;    0.000
 477.00;  -35.000;  -35.000;    0.000
 477.34;   19.000;   19.000;    0.000
 477.67;   29.000;   29.000;    0.000
 478.01;  126.000;  126.000;    0.000
 478.34;   55.000;   55.000;    0.000
 478.68;   36.000;   36.000;    0.000
 479.02;  150.000;  150.000;    0.000
 479.35;  258.000;  258.000;    0.000
 479.69;  185.000;  185.000;    0.000
 480.02;   19.000;   19.000;    0.000
 480.36;  130.000;  130.000;    0.000
 480.70;  164.000;  164.000;    0.000
 481.03;  315.000;  315.000;    0.000
 481.37;  342.000;  342.000;    0.000
 481.70;  272.000;  272.000;    0.000
 482.04;  196.000;  196.000;    0.000
 482.37;   22.000;   22.000;    0.000
 482.71;   31.000;   31.000;    0.000
 483.05;   67.000;   67.000;    0.000
 483.38;  273.000;  273.000;    0.000
 483.72;  230.000;  230.000;    0.000
 484.05;  338.000;  338.000;    0.000
 484.39;  518.000;  518.000;    0.000
 484.73; 1037.000; 1037.000;    0.000
 485.06; 2009.000; 2009.000;    0.000
 485.40;15164.000;15164.000;    0.000
 485.73;64742.000;64742.000;    0.000
 486.07;64744.000;64744.000;    0.000
 486.40;64742.000;64742.000;    0.000
 486.74;64744.000;64744.000;    0.000
 487.08;20392.000;20392.000;    0.000
 487.41;14798.000;14798.000;    0.000
 487.75;  529.000;  529.000;    0.000
 488.08;  266.000;  266.000;    0.000
 488.42;  217.000;  217.000;    0.000
 488.75;  175.000;  175.000;    0.000
 489.09;  129.000;  129.000;    0.000
 489.43;  128.000;  128.000;    0.000
 489.76;  157.000;  157.000;    0.000
 490.10;  108.000;  108.000;    0.000
 490.43;  194.000;  194.000;    0.000
 490.77;  172.000;  172.000;    0.000
 491.10;  156.000;  156.000;    0.000
 491.44;  270.000;  270.000;    0.000
 491.78;  406.000;  406.000;    0.000
 492.11;  284.000;  284.000;    0.000
 492.45;  862.000;  862.000;    0.000
 492.78; 1301.000; 1301.000;    0.000
 493.12; 1725.000; 1725.000;    0.000
 493.45;  944.000;  944.000;    0.000
 493.79;  284.000;  284.000;    0.000
 494.12;  220.000;  220.000;    0.000
 494.46;   71.000;   71.000;    0.000
 494.80;   12.000;   12.000;    0.000
 495.13;   58.000;   58.000;    0.000
 495.47;   41.000;   41.000;    0.000
 495.80;  138.000;  138.000;    0.000
 496.14;  -31.000;  -31.000;    0.000
 496.47;  150.000;  150.000;    0.000
 496.81;  330.000;  330.000;    0.000
 497.14;  123.000;  123.000;    0.000
 497.48;   66.000;   66.000;    0.000
 497.81;  167.000;  167.000;    0.000
 498.15;   50.000;   50.000;    0.000
 498.48;    5.000;    5.000;    0.000
 498.82;   43.000;   43.000;    0.000
 499.16;   67.000;   67.000;    0.000
 499.49;  199.000;  199.000;    0.000
 499.83;   85.000;   85.000;    0.000
 500.16;   56.000;   56.000;    0.000
 500.50;  280.000;  280.000;    0.000
 500.83;  325.000;  325.000;    0.000
 501.17;  924.000;  924.000;    0.000
 501.50;  530.000;  530.000;    0.000
 501.84;  210.000;  210.000;    0.000
 502.17;   79.000;   79.000;    0.000
 502.51;   83.000;   83.000;    0.000
 502.84;  261.000;  261.000;    0.000
 503.18;  331.000;  331.000;    0.000
 503.51;   76.000;   76.000;    0.000
 503.85;  226.000;  226.000;    0.000
 504.18;   99.000;   99.000;    0.000
 504.52;   39.000;   39.000;    0.000
 504.85;  135.000;  135.000;    0.000
 505.19;  168.000;  168.000;    0.000
 505.53;  150.000;  150.000;    0.000
 505.86;   62.000;   62.000;    0.000
 506.20;   -9.000;   -9.000;    0.000
 506.53;   32.000;   32.000;    0.000
 506.87;   53.000;   53.000;    0.000
 507.20;   83.000;   83.000;    0.000
 507.54;  148.000;  148.000;    0.000
 507.87;  198.000;  198.000;    0.000
 508.21;  319.000;  319.000;    0.000
 508.54;    1.000;    1.000;    0.000
 508.88;  -15.000;  -15.000;    0.000
 509.21;  250.000;  250.000;    0.000
 509.55;  132.000;  132.000;    0.000
 509.88;   16.000;   16.000;    0.000
 510.22;   88.000;   88.000;    0.000
 510.55;  129.000;  129.000;    0.000
 510.89;   16.000;   16.000;    0.000
 511.22;   70.000;   70.000;    0.000
 511.56;   59.000;   59.000;    0.000
 511.89;   70.000;   70.000;    0.000
 512.23;  -94.000;  -94.000;    0.000
 512.56;   54.000;   54.000;    0.000
 512.90;  122.000;  122.000;    0.000
 513.23;  288.000;  288.000;    0.000
 513.57;  168.000;  168.000;    0.000
 513.90;  239.000;  239.000;    0.000
 514.23;  464.000;  464.000;    0.000
 514.57;  465.000;  465.000;    0.000
 514.90;  183.000;  183.000;    0.000
 515.24;   78.000;   78.000;    0.000
 515.57;   47.000;   47.000;    0.000
 515.91;   48.000;   48.000;    0.000
 516.24;   60.000;   60.000;    0.000
 516.58;   76.000;   76.000;    0.000
 516.91;   30.000;   30.000;    0.000
 517.25;   24.000;   24.000;    0.000
 517.58;   61.000;   61.000;    0.000
 517.92;   -8.000;   -8.000;    0.000
 518.25;   79.000;   79.000;    0.000
 518.59;   47.000;   47.000;    0.000
 518.92;  -11.000;  -11.000;    0.000
 519.26;  -21.000;  -21.000;    0.000
 519.59;  151.000;  151.000;    0.000
 519.93;  292.000;  292.000;    0.000
 520.26;  -25.000;  -25.000;    0.000
 520.59;   51.000;   51.000;    0.000
 520.93;   85.000;   85.000;    0.000
 521.26;   84.000;   84.000;    0.000
 521.60;  107.000;  107.000;    0.000
 521.93;  -16.000;  -16.000;    0.000
 522.27;   -1.000;   -1.000;    0.000
 522.60;   15.000;   15.000;    0.000
 522.94;   41.000;   41.000;    0.000
 523.27;   22.000;   22.000;    0.000
 523.61;   29.000;   29.000;    0.000
 523.94;   78.000;   78.000;    0.000
 524.27;   57.000;   57.000;    0.000
 524.61;   53.000;   53.000;    0.000
 524.94;   78.000;   78.000;    0.000
 525.28;   -5.000;   -5.000;    0.000
 525.61;   44.000;   44.000;    0.000
 525.95;   95.000;   95.000;    0.000
 526.28;  178.000;  178.000;    0.000
 526.62;  177.000;  177.000;    0.000
 526.95;   51.000;   51.000;    0.000
 527.28;  -60.000;  -60.000;    0.000
 527.62;   15.000;   15.000;    0.000
 527.95;   13.000;   13.000;    0.000
 528.29;   98.000;   98.000;    0.000
 528.62;  -26.000;  -26.000;    0.000
 528.96;   83.000;   83.000;    0.000
 529.29;   20.000;   20.000;    0.000
 529.63;   80.000;   80.000;    0.000
 529.96;  125.000;  125.000;    0.000
 530.29;   90.000;   90.000;    0.000
 530.63;   20.000;   20.000;    0.000
 530.96;  -11.000;  -11.000;    0.000
 531.30;   54.000;   54.000;    0.000
 531.63;   56.000;   56.000;    0.000
 531.97;  369.000;  369.000;    0.000
 532.30;   47.000;   47.000;    0.000
 532.63;   91.000;   91.000;    0.000
 532.97;   14.000;   14.000;    0.000
 533.30;  -64.000;  -64.000;    0.000
 533.64;   82.000;   82.000;    0.000
 533.97;   60.000;   60.000;    0.000
 534.30;   95.000;   95.000;    0.000
 534.64;  151.000;  151.000;    0.000
 534.97;   41.000;   41.000;    0.000
 535.31;   27.000;   27.000;    0.000
 535.64;  117.000;  117.000;    0.000
 535.98;  -12.000;  -12.000;    0.000
 536.31;   21.000;   21.000;    0.000
 536.64;  111.000;  111.000;    0.000
 536.98;   53.000;   53.000;    0.000
 537.31;   39.000;   39.000;    0.000
 537.65;   49.000;   49.000;    0.000
 537.98;   85.000;   85.000;    0.000
 538.31;   35.000;   35.000;    0.000
 538.65;   53.000;   53.000;    0.000
 538.98;   95.000;   95.000;    0.000
 539.32;   17.000;   17.000;    0.000
 539.65;   94.000;   94.000;    0.000
 539.98;   98.000;   98.000;    0.000
 540.32;   68.000;   68.000;    0.000
 540.65;  -30.000;  -30.000;    0.000
 540.99;   66.000;   66.000;    0.000
 541.32;  115.000;  115.000;    0.000
 541.65;   84.000;   84.000;    0.000
 541.99;  176.000;  176.000;    0.000
 542.32;  262.000;  262.000;    0.000
 542.66;  609.000;  609.000;    0.000
 542.99;  605.000;  605.000;    0.000
 543.32;  288.000;  288.000;    0.000
 543.66;  129.000;  129.000;    0.000
 543.99;   71.000;   71.000;    0.000
 544.32;   62.000;   62.000;    0.000
 544.66;  119.000;  119.000;    0.000
 544.99;  225.000;  225.000;    0.000
 545.33;  953.000;  953.000;    0.000
 545.66;  151.000;  151.000;    0.000
 545.99;  241.000;  241.000;    0.000
 546.33;   17.000;   17.000;    0.000
 546.66;  143.000;  143.000;    0.000
 546.99;   24.000;   24.000;    0.000
 547.33;  160.000;  160.000;    0.000
 547.66;   46.000;   46.000;    0.000
 548.00;   21.000;   21.000;    0.000
 548.33;   47.000;   47.000;    0.000
 548.66;   50.000;   50.000;    0.000
 549.00;  -91.000;  -91.000;    0.000
 549.33;  119.000;  119.000;    0.000
 549.66;  146.000;  146.000;    0.000
 550.00;   84.000;   84.000;    0.000
 550.33;   70.000;   70.000;    0.000
 550.66;  263.000;  263.000;    0.000
 551.00;   51.000;   51.000;    0.000
 551.33;   87.000;   87.000;    0.000
 551.67;   69.000;   69.000;    0.000
 552.00;    3.000;    3.000;    0.000
 552.33;    5.000;    5.000;    0.000
 552.67;    2.000;    2.000;    0.000
 553.00;  -21.000;  -21.000;    0.000
 553.33;   89.000;   89.000;    0.000
 553.67;  231.000;  231.000;    0.000
 554.00;  -75.000;  -75.000;    0.000
 554.33;   78.000;   78.000;    0.000
 554.67;  136.000;  136.000;    0.000
 555.00;   46.000;   46.000;    0.000
 555.33;  104.000;  104.000;    0.000
 555.67;   12.000;   12.000;    0.000
 556.00;  181.000;  181.000;    0.000
 556.33;  103.000;  103.000;    0.000
 556.67;   33.000;   33.000;    0.000
 557.00;   -9.000;   -9.000;    0.000
 557.33;  -16.000;  -16.000;    0.000
 557.67;  -34.000;  -34.000;    0.000
 558.00;  128.000;  128.000;    0.000
 558.33;   84.000;   84.000;    0.000
 558.67;  -12.000;  -12.000;    0.000
 559.00;  -27.000;  -27.000;    0.000
 559.33;  105.000;  105.000;    0.000
 559.67;   65.000;   65.000;    0.000
 560.00;  162.000;  162.000;    0.000
 560.33;  131.000;  131.000;    0.000
 560.67;  137.000;  137.000;    0.000
 561.00;   46.000;   46.000;    0.000
 561.33;   55.000;   55.000;    0.000
 561.67;   48.000;   48.000;    0.000
 562.00;  -90.000;  -90.000;    0.000
 562.33;   52.000;   52.000;    0.000
 562.67;   11.000;   11.000;    0.000
 563.00;  111.000;  111.000;    0.000
 563.33;   78.000;   78.000;    0.000
 563.67;  104.000;  104.000;    0.000
 564.00;  472.000;  472.000;    0.000
 564.33;  205.000;  205.000;    0.000
 564.67;  214.000;  214.000;    0.000
 565.00;  176.000;  176.000;    0.000
 565.33;   70.000;   70.000;    0.000
 565.67;  179.000;  179.000;    0.000
 566.00;  183.000;  183.000;    0.000
 566.33;  138.000;  138.000;    0.000
 566.66;  172.000;  172.000;    0.000
 567.00;   74.000;   74.000;    0.000
 567.33;  178.000;  178.000;    0.000
 567.66;   73.000;   73.000;    0.000
 568.00;  149.000;  149.000;    0.000
 568.33;  135.000;  135.000;    0.000
 568.66;  281.000;  281.000;    0.000
 569.00;  166.000;  166.000;    0.000
 569.33;  189.000;  189.000;    0.000
 569.66;  220.000;  220.000;    0.000
 569.99;  262.000;  262.000;    0.000
 570.33;  166.000;  166.000;    0.000
 570.66;   27.000;   27.000;    0.000
 570.99;   76.000;   76.000;    0.000
 571.33;  114.000;  114.000;    0.000
 571.66; -100.000; -100.000;    0.000
 571.99;  103.000;  103.000;    0.000
 572.32;   79.000;   79.000;    0.000
 572.66;  174.000;  174.000;    0.000
 572.99;  278.000;  278.000;    0.000
 573.32;  390.000;  390.000;    0.000
 573.66;  131.000;  131.000;    0.000
 573.99;   38.000;   38.000;    0.000
 574.32;  -10.000;  -10.000;    0.000
 574.65;   61.000;   61.000;    0.000
 574.99;  -10.000;  -10.000;    0.000
 575.32;  102.000;  102.000;    0.000
 575.65;   82.000;   82.000;    0.000
 575.98;  221.000;  221.000;    0.000
 576.32;   88.000;   88.000;    0.000
 576.65;   39.000;   39.000;    0.000
 576.98;  182.000;  182.000;    0.000
 577.32;   81.000;   81.000;    0.000
 577.65;   76.000;   76.000;    0.000
 577.98;  162.000;  162.000;    0.000
 578.31;  225.000;  225.000;    0.000
 578.65;  201.000;  201.000;    0.000
 578.98;  228.000;  228.000;    0.000
 579.31;  322.000;  322.000;    0.000
 579.64;  262.000;  262.000;    0.000
 579.98;  311.000;  311.000;    0.000
 580.31;  398.000;  398.000;    0.000
 580.64;  428.000;  428.000;    0.000
 580.97;  870.000;  870.000;    0.000
 581.31; 1241.000; 1241.000;    0.000
 581.64;  931.000;  931.000;    0.000
 581.97;  411.000;  411.000;    0.000
 582.30;  251.000;  251.000;    0.000
 582.64;  197.000;  197.000;    0.000
 582.97;  160.000;  160.000;    0.000
 583.30;  738.000;  738.000;    0.000
 583.63;  349.000;  349.000;    0.000
 583.97;  148.000;  148.000;    0.000
 584.30;   48.000;   48.000;    0.000
 584.63;  176.000;  176.000;    0.000
 584.96;  148.000;  148.000;    0.000
 585.30;   37.000;   37.000;    0.000
 585.63;   87.000;   87.000;    0.000
 585.96;   52.000;   52.000;    0.000
 586.29;  193.000;  193.000;    0.000
 586.63;  478.000;  478.000;    0.000
 586.96;  456.000;  456.000;    0.000
 587.29;  166.000;  166.000;    0.000
 587.62;  275.000;  275.000;    0.000
 587.95;  287.000;  287.000;    0.000
 588.29;  226.000;  226.000;    0.000
 588.62;  614.000;  614.000;    0.000
 588.95;  620.000;  620.000;    0.000
 589.28;  176.000;  176.000;    0.000
 589.62;  133.000;  133.000;    0.000
 589.95;   47.000;   47.000;    0.000
 590.28;   80.000;   80.000;    0.000
 590.61;   64.000;   64.000;    0.000
 590.94;   67.000;   67.000;    0.000
 591.28;  293.000;  293.000;    0.000
 591.61;  301.000;  301.000;    0.000
 591.94;  228.000;  228.000;    0.000
 592.27;  291.000;  291.000;    0.000
 592.61;  256.000;  256.000;    0.000
 592.94;  556.000;  556.000;    0.000
 593.27;  417.000;  417.000;    0.000
 593.60;  503.000;  503.000;    0.000
 593.93;  236.000;  236.000;    0.000
 594.27;   51.000;   51.000;    0.000
 594.60;  214.000;  214.000;    0.000
 594.93;  154.000;  154.000;    0.000
 595.26;   94.000;   94.000;    0.000
 595.59;  135.000;  135.000;    0.000
 595.93;  164.000;  164.000;    0.000
 596.26;  168.000;  168.000;    0.000
 596.59;  163.000;  163.000;    0.000
 596.92;  188.000;  188.000;    0.000
 597.25;  714.000;  714.000;    0.000
 597.59;  571.000;  571.000;    0.000
 597.92;  148.000;  148.000;    0.000
 598.25;   95.000;   95.000;    0.000
 598.58;  120.000;  120.000;    0.000
 598.91;  114.000;  114.000;    0.000
 599.25;  190.000;  190.000;    0.000
 599.58;   85.000;   85.000;    0.000
 599.91;   88.000;   88.000;    0.000
 600.24;  171.000;  171.000;    0.000
 600.57;  115.000;  115.000;    0.000
 600.90;   24.000;   24.000;    0.000
 601.24;  329.000;  329.000;    0.000
 601.57; 1365.000; 1365.000;    0.000
 601.90; 1696.000; 1696.000;    0.000
 602.23;  413.000;  413.000;    0.000
 602.56;  548.000;  548.000;    0.000
 602.90; 1250.000; 1250.000;    0.000
 603.23; 1083.000; 1083.000;    0.000
 603.56;  121.000;  121.000;    0.000
 603.89;  113.000;  113.000;    0.000
 604.22;  163.000;  163.000;    0.000
 604.55;  115.000;  115.000;    0.000
 604.89;   31.000;   31.000;    0.000
 605.22;  149.000;  149.000;    0.000
 605.55;  178.000;  178.000;    0.000
 605.88;   70.000;   70.000;    0.000
 606.21;   69.000;   69.000;    0.000
 606.54;  332.000;  332.000;    0.000
 606.88;   62.000;   62.000;    0.000
 607.21;    7.000;    7.000;    0.000
 607.54;  -78.000;  -78.000;    0.000
 607.87;  275.000;  275.000;    0.000
 608.20;  163.000;  163.000;    0.000
 608.53;  187.000;  187.000;    0.000
 608.86;  333.000;  333.000;    0.000
 609.20;  373.000;  373.000;    0.000
 609.53;  335.000;  335.000;    0.000
 609.86;  116.000;  116.000;    0.000
 610.19;  -75.000;  -75.000;    0.000
 610.52;   43.000;   43.000;    0.000
 610.85;   42.000;   42.000;    0.000
 611.19;   94.000;   94.000;    0.000
 611.52;   35.000;   35.000;    0.000
 611.85;  391.000;  391.000;    0.000
 612.18;  297.000;  297.000;    0.000
 612.51;  451.000;  451.000;    0.000
 612.84;  178.000;  178.000;    0.000
 613.17;  468.000;  468.000;    0.000
 613.50;  247.000;  247.000;    0.000
 613.84;  151.000;  151.000;    0.000
 614.17;  -21.000;  -21.000;    0.000
 614.50;  -25.000;  -25.000;    0.000
 614.83;  -47.000;  -47.000;    0.000
 615.16;   40.000;   40.000;    0.000
 615.49;  167.000;  167.000;    0.000
 615.82;  260.000;  260.000;    0.000
 616.16;  233.000;  233.000;    0.000
 616.49;   75.000;   75.000;    0.000
 616.82;   11.000;   11.000;    0.000
 617.15;   28.000;   28.000;    0.000
 617.48;  135.000;  135.000;    0.000
 617.81;   45.000;   45.000;    0.000
 618.14;  185.000;  185.000;    0.000
 618.47;   74.000;   74.000;    0.000
 618.81;  115.000;  115.000;    0.000
 619.14;  -36.000;  -36.000;    0.000
 619.47;   88.000;   88.000;    0.000
 619.80;  261.000;  261.000;    0.000
 620.13;  110.000;  110.000;    0.000
 620.46;  -12.000;  -12.000;    0.000
 620.79;   83.000;   83.000;    0.000
 621.12;  -64.000;  -64.000;    0.000
 621.45;  116.000;  116.000;    0.000
 621.79;  -39.000;  -39.000;    0.000
 622.12;   45.000;   45.000;    0.000
 622.45;  142.000;  142.000;    0.000
 622.78;    7.000;    7.000;    0.000
 623.11;   64.000;   64.000;    0.000
 623.44;   38.000;   38.000;    0.000
 623.77;  185.000;  185.000;    0.000
 624.10;   88.000;   88.000;    0.000
 624.43;    4.000;    4.000;    0.000
 624.76;   23.000;   23.000;    0.000
 625.10;  -29.000;  -29.000;    0.000
 625.43;   -6.000;   -6.000;    0.000
 625.76;    8.000;    8.000;    0.000
 626.09;  -71.000;  -71.000;    0.000
 626.42;   52.000;   52.000;    0.000
 626.75;  109.000;  109.000;    0.000
 627.08;  167.000;  167.000;    0.000
 627.41;   41.000;   41.000;    0.000
 627.74;   49.000;   49.000;    0.000
 628.07;   33.000;   33.000;    0.000
 628.40;   47.000;   47.000;    0.000
 628.73;   63.000;   63.000;    0.000
 629.07;  -37.000;  -37.000;    0.000
 629.40;   18.000;   18.000;    0.000
 629.73;   95.000;   95.000;    0.000
 630.06;  173.000;  173.000;    0.000
 630.39;   20.000;   20.000;    0.000
 630.72;  -21.000;  -21.000;    0.000
 631.05;   63.000;   63.000;    0.000
 631.38;   15.000;   15.000;    0.000
 631.71;    3.000;    3.000;    0.000
 632.04;   81.000;   81.000;    0.000
 632.37;   58.000;   58.000;    0.000
 632.70;  169.000;  169.000;    0.000
 633.03;   54.000;   54.000;    0.000
 633.36;   37.000;   37.000;    0.000
 633.70;   59.000;   59.000;    0.000
 634.03;   90.000;   90.000;    0.000
 634.36;   39.000;   39.000;    0.000
 634.69;   98.000;   98.000;    0.000
 635.02;   57.000;   57.000;    0.000
 635.35;  -71.000;  -71.000;    0.000
 635.68;    7.000;    7.000;    0.000
 636.01;   57.000;   57.000;    0.000
 636.34;   47.000;   47.000;    0.000
 636.67;  -38.000;  -38.000;    0.000
 637.00;   73.000;   73.000;    0.000
 637.33;  -47.000;  -47.000;    0.000
 637.66;   11.000;   11.000;    0.000
 637.99;  -33.000;  -33.000;    0.000
 638.32;   11.000;   11.000;    0.000
 638.65;   16.000;   16.000;    0.000
 638.98;   17.000;   17.000;    0.000
 639.31;   49.000;   49.000;    0.000
 639.64;  -64.000;  -64.000;    0.000
 639.97;   21.000;   21.000;    0.000
 640.30;  -86.000;  -86.000;    0.000
 640.64;    4.000;    4.000;    0.000
 640.97;   55.000;   55.000;    0.000
 641.30;  -25.000;  -25.000;    0.000
 641.63;  -69.000;  -69.000;    0.000
 641.96;  -18.000;  -18.000;    0.000
 642.29;  -38.000;  -38.000;    0.000
 642.62;  -15.000;  -15.000;    0.000
 642.95;   68.000;   68.000;    0.000
 643.28;   75.000;   75.000;    0.000
 643.61;   27.000;   27.000;    0.000
 643.94;  -70.000;  -70.000;    0.000
 644.27;    9.000;    9.000;    0.000
 644.60;  -27.000;  -27.000;    0.000
 644.93;   56.000;   56.000;    0.000
 645.26;   -3.000;   -3.000;    0.000
 645.59;   51.000;   51.000;    0.000
 645.92;  100.000;  100.000;    0.000
 646.25;   11.000;   11.000;    0.000
 646.58;  -11.000;  -11.000;    0.000
 646.91;   17.000;   17.000;    0.000
 647.24;  -37.000;  -37.000;    0.000
 647.57;   46.000;   46.000;    0.000
 647.90;   39.000;   39.000;    0.000
 648.23;   -9.000;   -9.000;    0.000
 648.56;   34.000;   34.000;    0.000
 648.89;   30.000;   30.000;    0.000
 649.22;   -6.000;   -6.000;    0.000
 649.55;  108.000;  108.000;    0.000
 649.88;  109.000;  109.000;    0.000
 650.21;  103.000;  103.000;    0.000
 650.54;   34.000;   34.000;    0.000
 650.87;    3.000;    3.000;    0.000
 651.20;   61.000;   61.000;    0.000
 651.53;   67.000;   67.000;    0.000
 651.86;   33.000;   33.000;    0.000
 652.19;   51.000;   51.000;    0.000
 652.52;  251.000;  251.000;    0.000
 652.85;   95.000;   95.000;    0.000
 653.18;  251.000;  251.000;    0.000
 653.51;  223.000;  223.000;    0.000
 653.84;  257.000;  257.000;    0.000
 654.17;  656.000;  656.000;    0.000
 654.50; 1787.000; 1787.000;    0.000
 654.83; 5322.000; 5322.000;    0.000
 655.16;14661.000;14661.000;    0.000
 655.49;64742.000;64742.000;    0.000
 655.82;64744.000;64744.000;    0.000
 656.15;64742.000;64742.000;    0.000
 656.48;64744.000;64744.000;    0.000
 656.81;64742.000;64742.000;    0.000
 657.14;64744.000;64744.000;    0.000
 657.47;64742.000;64742.000;    0.000
 657.80;64744.000;64744.000;    0.000
 658.13;64742.000;64742.000;    0.000
 658.46;64744.000;64744.000;    0.000
 658.79;64742.000;64742.000;    0.000
 659.12;64744.000;64744.000;    0.000
 659.44;64742.000;64742.000;    0.000
 659.77;64744.000;64744.000;    0.000
 660.10;64742.000;64742.000;    0.000
 660.43;38843.000;38843.000;    0.000
 660.76;21873.000;21873.000;    0.000
 661.09;  277.000;  277.000;    0.000
 661.42;  198.000;  198.000;    0.000
 661.75;  167.000;  167.000;    0.000
 662.08;  174.000;  174.000;    0.000
 662.41;  318.000;  318.000;    0.000
 662.74;  343.000;  343.000;    0.000
 663.07;   50.000;   50.000;    0.000
 663.40;   80.000;   80.000;    0.000
 663.73;   12.000;   12.000;    0.000
 664.06;  277.000;  277.000;    0.000
 664.39;  147.000;  147.000;    0.000
 664.72;   99.000;   99.000;    0.000
 665.05;  157.000;  157.000;    0.000
 665.38;   46.000;   46.000;    0.000
 665.71;   82.000;   82.000;    0.000
 666.04;  116.000;  116.000;    0.000
 666.36;  105.000;  105.000;    0.000
 666.69;   -5.000;   -5.000;    0.000
 667.02;  108.000;  108.000;    0.000
 667.35;   43.000;   43.000;    0.000
 667.68;    7.000;    7.000;    0.000
 668.01;   71.000;   71.000;    0.000
 668.34;  -11.000;  -11.000;    0.000
 668.67;  -20.000;  -20.000;    0.000
 669.00;  -23.000;  -23.000;    0.000
 669.33;   18.000;   18.000;    0.000
 669.66;   39.000;   39.000;    0.000
 669.99;   29.000;   29.000;    0.000
 670.32;   27.000;   27.000;    0.000
 670.65;   39.000;   39.000;    0.000
 670.97;  -20.000;  -20.000;    0.000
 671.30;   14.000;   14.000;    0.000
 671.63;  -28.000;  -28.000;    0.000
 671.96;  -10.000;  -10.000;    0.000
 672.29;   11.000;   11.000;    0.000
 672.62;  100.000;  100.000;    0.000
 672.95;  -54.000;  -54.000;    0.000
 673.28;   -8.000;   -8.000;    0.000
 673.61;   -4.000;   -4.000;    0.000
 673.94;  -68.000;  -68.000;    0.000
 674.27;   -9.000;   -9.000;    0.000
 674.59;   11.000;   11.000;    0.000
 674.92;  -29.000;  -29.000;    0.000
 675.25;  -42.000;  -42.000;    0.000
 675.58;  -39.000;  -39.000;    0.000
 675.91;  -14.000;  -14.000;    0.000
 676.24; -119.000; -119.000;    0.000
 676.57;  -90.000;  -90.000;    0.000
 676.90;  -20.000;  -20.000;    0.000
 677.23;   25.000;   25.000;    0.000
 677.56;   -2.000;   -2.000;    0.000
 677.88;   25.000;   25.000;    0.000
 678.21;   86.000;   86.000;    0.000
 678.54;   24.000;   24.000;    0.000
 678.87;  -36.000;  -36.000;    0.000
 679.20;  -53.000;  -53.000;    0.000
 679.53;   18.000;   18.000;    0.000
 679.86;    1.000;    1.000;    0.000
 680.19;   -1.000;   -1.000;    0.000
 680.52;   22.000;   22.000;    0.000
 680.84;   19.000;   19.000;    0.000
 681.17;   19.000;   19.000;    0.000
 681.50;   32.000;   32.000;    0.000
 681.83;  -82.000;  -82.000;    0.000
 682.16; -112.000; -112.000;    0.000
 682.49;   20.000;   20.000;    0.000
 682.82;   -3.000;   -3.000;    0.000
 683.15;  -28.000;  -28.000;    0.000
 683.47;  -32.000;  -32.000;    0.000
 683.80;  -22.000;  -22.000;    0.000
 684.13;   61.000;   61.000;    0.000
 684.46;   29.000;   29.000;    0.000
 684.79;   -1.000;   -1.000;    0.000
 685.12;   16.000;   16.000;    0.000
 685.45;   16.000;   16.000;    0.000
 685.78;  -65.000;  -65.000;    0.000
 686.10;  -54.000;  -54.000;    0.000
 686.43;   -4.000;   -4.000;    0.000
 686.76;  -79.000;  -79.000;    0.000
 687.09;  -36.000;  -36.000;    0.000
 687.42; -149.000; -149.000;    0.000
 687.75; -103.000; -103.000;    0.000
 688.08;   57.000;   57.000;    0.000
 688.40;    1.000;    1.000;    0.000
 688.73;  -11.000;  -11.000;    0.000
 689.06;  -36.000;  -36.000;    0.000
 689.39;    8.000;    8.000;    0.000
 689.72;   13.000;   13.000;    0.000
 690.05;   68.000;   68.000;    0.000
 690.38;   -3.000;   -3.000;    0.000
 690.70;   23.000;   23.000;    0.000
 691.03;   10.000;   10.000;    0.000
 691.36; -130.000; -130.000;    0.000
 691.69;  -48.000;  -48.000;    0.000
 692.02;  -50.000;  -50.000;    0.000
 692.35;   16.000;   16.000;    0.000
 692.67;    2.000;    2.000;    0.000
 693.00;  -87.000;  -87.000;    0.000
 693.33;  -19.000;  -19.000;    0.000
 693.66;  -11.000;  -11.000;    0.000
 693.99;  -39.000;  -39.000;    0.000
 694.32;   19.000;   19.000;    0.000
 694.64;    8.000;    8.000;    0.000
 694.97;  -27.000;  -27.000;    0.000
 695.30;    6.000;    6.000;    0.000
 695.63;  -53.000;  -53.000;    0.000
 695.96;   -9.000;   -9.000;    0.000
 696.28;   -8.000;   -8.000;    0.000
 696.61;   -2.000;   -2.000;    0.000
 696.94;  -35.000;  -35.000;    0.000
 697.27;   -9.000;   -9.000;    0.000
 697.60;    0.000;    0.000;    0.000
 697.93;  -11.000;  -11.000;    0.000
 698.25;   55.000;   55.000;    0.000
 698.58;  -36.000;  -36.000;    0.000
 698.91;  -46.000;  -46.000;    0.000
 699.24;  -49.000;  -49.000;    0.000
 699.57;  -65.000;  -65.000;    0.000
 699.89;  -19.000;  -19.000;    0.000
 700.22;   -2.000;   -2.000;    0.000
 700.55;  -30.000;  -30.000;    0.000
 700.88;  -34.000;  -34.000;    0.000
 701.21;   -9.000;   -9.000;    0.000
 701.53;    7.000;    7.000;    0.000
 701.86;  -26.000;  -26.000;    0.000
 702.19;  -43.000;  -43.000;    0.000
 702.52;   26.000;   26.000;    0.000
 702.85;  -78.000;  -78.000;    0.000
 703.17;    1.000;    1.000;    0.000
 703.50; -129.000; -129.000;    0.000
 703.83;   38.000;   38.000;    0.000
 704.16;    7.000;    7.000;    0.000
 704.49;   -8.000;   -8.000;    0.000
 704.81;   47.000;   47.000;    0.000
 705.14;  -13.000;  -13.000;    0.000
 705.47;  -11.000;  -11.000;    0.000
 705.80;   11.000;   11.000;    0.000
 706.13;  -18.000;  -18.000;    0.000
 706.45;  -81.000;  -81.000;    0.000
 706.78;   62.000;   62.000;    0.000
 707.11;   56.000;   56.000;    0.000
 707.44;  -44.000;  -44.000;    0.000
 707.76;  -26.000;  -26.000;    0.000
 708.09;   38.000;   38.000;    0.000
 708.42;   26.000;   26.000;    0.000
 708.75;  -88.000;  -88.000;    0.000
 709.08;   51.000;   51.000;    0.000
 709.40;    3.000;    3.000;    0.000
 709.73;  -46.000;  -46.000;    0.000
 710.06;  -11.000;  -11.000;    0.000
 710.39;   -5.000;   -5.000;    0.000
 710.71;  -76.000;  -76.000;    0.000
 711.04;  -97.000;  -97.000;    0.000
 711.37;  -61.000;  -61.000;    0.000
 711.70;   32.000;   32.000;    0.000
 712.02;   24.000;   24.000;    0.000
 712.35;   23.000;   23.000;    0.000
 712.68;  -24.000;  -24.000;    0.000
 713.01;  -57.000;  -57.000;    0.000
 713.33;   -4.000;   -4.000;    0.000
 713.66;  -51.000;  -51.000;    0.000
 713.99;   12.000;   12.000;    0.000
 714.32;   53.000;   53.000;    0.000
 714.64;    2.000;    2.000;    0.000
 714.97;  -37.000;  -37.000;    0.000
 715.30;  -97.000;  -97.000;    0.000
 715.63;  -55.000;  -55.000;    0.000
 715.95;  -37.000;  -37.000;    0.000
 716.28;   26.000;   26.000;    0.000
 716.61;   64.000;   64.000;    0.000
 716.94;   25.000;   25.000;    0.000
 717.26;   59.000;   59.000;    0.000
 717.59;  -17.000;  -17.000;    0.000
 717.92;  -37.000;  -37.000;    0.000
 718.25;  -19.000;  -19.000;    0.000
 718.57;  -27.000;  -27.000;    0.000
 718.90;   -1.000;   -1.000;    0.000
 719.23;   70.000;   70.000;    0.000
 719.56;  -17.000;  -17.000;    0.000
 719.88;  -19.000;  -19.000;    0.000
 720.21;  -56.000;  -56.000;    0.000
 720.54;   34.000;   34.000;    0.000
 720.86;   26.000;   26.000;    0.000
 721.19;   30.000;   30.000;    0.000
 721.52;  -14.000;  -14.000;    0.000
 721.85;   46.000;   46.000;    0.000
 722.17;  -60.000;  -60.000;    0.000
 722.50;   51.000;   51.000;    0.000
 722.83;   32.000;   32.000;    0.000
 723.15;   49.000;   49.000;    0.000
 723.48;   46.000;   46.000;    0.000
 723.81;   80.000;   80.000;    0.000
 724.14;  -39.000;  -39.000;    0.000
 724.46;   24.000;   24.000;    0.000
 724.79;  -16.000;  -16.000;    0.000
 725.12;   99.000;   99.000;    0.000
 725.44;   -7.000;   -7.000;    0.000
 725.77;   19.000;   19.000;    0.000
 726.10;   27.000;   27.000;    0.000
 726.43;  -62.000;  -62.000;    0.000
 726.75;   -7.000;   -7.000;    0.000
 727.08;  -69.000;  -69.000;    0.000
 727.41;   65.000;   65.000;    0.000
 727.73;   20.000;   20.000;    0.000
 728.06;  -56.000;  -56.000;    0.000
 728.39;  -41.000;  -41.000;    0.000
 728.71;   27.000;   27.000;    0.000
 729.04;   77.000;   77.000;    0.000
 729.37;   41.000;   41.000;    0.000
 729.69;  -80.000;  -80.000;    0.000
 730.02;    1.000;    1.000;    0.000
 730.35;   16.000;   16.000;    0.000
 730.68;   46.000;   46.000;    0.000
 731.00;   25.000;   25.000;    0.000
 731.33;   47.000;   47.000;    0.000
 731.66;   63.000;   63.000;    0.000
 731.98;  -29.000;  -29.000;    0.000
 732.31;   39.000;   39.000;    0.000
 732.64;  -14.000;  -14.000;    0.000
 732.96;    2.000;    2.000;    0.000
 733.29;   51.000;   51.000;    0.000
 733.62;   -2.000;   -2.000;    0.000
 733.94;   29.000;   29.000;    0.000
 734.27;  -87.000;  -87.000;    0.000
 734.60;  -48.000;  -48.000;    0.000
 734.92;   40.000;   40.000;    0.000
 735.25;  -44.000;  -44.000;    0.000
 735.58;  -33.000;  -33.000;    0.000
 735.90;  -68.000;  -68.000;    0.000
 736.23;  -60.000;  -60.000;    0.000
 736.56;   17.000;   17.000;    0.000
 736.88;  -30.000;  -30.000;    0.000
 737.21;   19.000;   19.000;    0.000
 737.54;  -16.000;  -16.000;    0.000
 737.86;   25.000;   25.000;    0.000
 738.19;  -63.000;  -63.000;    0.000
 738.52;  -48.000;  -48.000;    0.000
 738.84;  -92.000;  -92.000;    0.000
 739.17;   25.000;   25.000;    0.000
 739.50;   49.000;   49.000;    0.000
 739.82;  146.000;  146.000;    0.000
 740.15;  -56.000;  -56.000;    0.000
 740.47;   47.000;   47.000;    0.000
 740.80;   17.000;   17.000;    0.000
 741.13;  -40.000;  -40.000;    0.000
 741.45;  -17.000;  -17.000;    0.000
 741.78;   29.000;   29.000;    0.000
 742.11;   -4.000;   -4.000;    0.000
 742.43;   78.000;   78.000;    0.000
 742.76;  -10.000;  -10.000;    0.000
 743.09;  -33.000;  -33.000;    0.000
 743.41;  -79.000;  -79.000;    0.000
 743.74; -107.000; -107.000;    0.000
 744.06;   83.000;   83.000;    0.000
 744.39;  -36.000;  -36.000;    0.000
 744.72;  128.000;  128.000;    0.000
 745.04;   -8.000;   -8.000;    0.000
 745.37;   19.000;   19.000;    0.000
 745.70;  -49.000;  -49.000;    0.000
 746.02;   84.000;   84.000;    0.000
 746.35;  -33.000;  -33.000;    0.000
 746.67;   12.000;   12.000;    0.000
 747.00;   81.000;   81.000;    0.000
 747.33;  -28.000;  -28.000;    0.000
 747.65;  -43.000;  -43.000;    0.000
 747.98;  -34.000;  -34.000;    0.000
 748.31;   75.000;   75.000;    0.000
 748.63;   37.000;   37.000;    0.000
 748.96;   23.000;   23.000;    0.000
 749.28;   29.000;   29.000;    0.000
 749.61;  -38.000;  -38.000;    0.000
 749.94; -130.000; -130.000;    0.000
 750.26;   92.000;   92.000;    0.000
 750.59;  -18.000;  -18.000;    0.000
 750.91;   36.000;   36.000;    0.000
 751.24;  -63.000;  -63.000;    0.000
 751.57;   -2.000;   -2.000;    0.000
 751.89;   32.000;   32.000;    0.000
 752.22;   -8.000;   -8.000;    0.000
 752.54;   30.000;   30.000;    0.000
 752.87;  -16.000;  -16.000;    0.000
 753.20;   25.000;   25.000;    0.000
 753.52;   19.000;   19.000;    0.000
 753.85;  122.000;  122.000;    0.000
 754.17;   30.000;   30.000;    0.000
 754.50;  -46.000;  -46.000;    0.000
 754.82;   34.000;   34.000;    0.000
 755.15;  -18.000;  -18.000;    0.000
 755.48;   76.000;   76.000;    0.000
 755.80;   -7.000;   -7.000;    0.000
 756.13;   22.000;   22.000;    0.000
 756.45;  -37.000;  -37.000;    0.000
 756.78;   20.000;   20.000;    0.000
 757.11;   76.000;   76.000;    0.000
 757.43;  -46.000;  -46.000;    0.000
 757.76;   37.000;   37.000;    0.000
 758.08;  -71.000;  -71.000;    0.000
 758.41;   -4.000;   -4.000;    0.000
 758.73;  -25.000;  -25.000;    0.000
 759.06;  -23.000;  -23.000;    0.000
 759.39;   -6.000;   -6.000;    0.000
 759.71;   69.000;   69.000;    0.000
 760.04;  -17.000;  -17.000;    0.000
 760.36;   20.000;   20.000;    0.000
 760.69;   22.000;   22.000;    0.000
 761.01;  -41.000;  -41.000;    0.000
 761.34;    8.000;    8.000;    0.000
 761.66;  -72.000;  -72.000;    0.000
 761.99;   -9.000;   -9.000;    0.000
 762.32;  -39.000;  -39.000;    0.000
 762.64;  -63.000;  -63.000;    0.000
 762.97;  -82.000;  -82.000;    0.000
 763.29;    3.000;    3.000;    0.000
 763.62;  -62.000;  -62.000;    0.000
 763.94;   18.000;   18.000;    0.000
 764.27;   55.000;   55.000;    0.000
 764.59;  -30.000;  -30.000;    0.000
 764.92;   20.000;   20.000;    0.000
 765.25;  -34.000;  -34.000;    0.000
 765.57;  -13.000;  -13.000;    0.000
 765.90;  -11.000;  -11.000;    0.000
 766.22;  -15.000;  -15.000;    0.000
 766.55;  -11.000;  -11.000;    0.000
 766.87;  -33.000;  -33.000;    0.000
 767.20;    5.000;    5.000;    0.000
 767.52;  -41.000;  -41.000;    0.000
 767.85;  104.000;  104.000;    0.000
 768.17;  -11.000;  -11.000;    0.000
 768.50; -113.000; -113.000;    0.000
 768.82;  -65.000;  -65.000;    0.000
 769.15;   59.000;   59.000;    0.000
 769.47;   68.000;   68.000;    0.000
 769.80;   -2.000;   -2.000;    0.000
 770.13;  -40.000;  -40.000;    0.000
 770.45;   45.000;   45.000;    0.000
 770.78;  -30.000;  -30.000;    0.000
 771.10;  -85.000;  -85.000;    0.000
 771.43;    9.000;    9.000;    0.000
 771.75;   39.000;   39.000;    0.000
 772.08;   39.000;   39.000;    0.000
 772.40;  -30.000;  -30.000;    0.000
 772.73;    4.000;    4.000;    0.000
 773.05;   54.000;   54.000;    0.000
 773.38;   58.000;   58.000;    0.000
 773.70;    9.000;    9.000;    0.000
 774.03;  -33.000;  -33.000;    0.000
 774.35;  -25.000;  -25.000;    0.000
 774.68;  -21.000;  -21.000;    0.000
 775.00;  -48.000;  -48.000;    0.000
 775.33;   -3.000;   -3.000;    0.000
 775.65;   -9.000;   -9.000;    0.000
 775.98;  -22.000;  -22.000;    0.000
 776.30;    5.000;    5.000;    0.000
 776.63;  634.000;  634.000;    0.000
 776.95; 2954.000; 2954.000;    0.000
 777.28; 2678.000; 2678.000;    0.000
 777.60;  290.000;  290.000;    0.000
 777.93;   17.000;   17.000;    0.000
 778.25;   16.000;   16.000;    0.000
 778.58;   29.000;   29.000;    0.000
 778.90;   18.000;   18.000;    0.000
 779.23;  -55.000;  -55.000;    0.000
 779.55;  -24.000;  -24.000;    0.000
 779.88;  -58.000;  -58.000;    0.000
 780.20;  -58.000;  -58.000;    0.000
 780.52;  -39.000;  -39.000;    0.000
 780.85;  -30.000;  -30.000;    0.000
 781.17;   -8.000;   -8.000;    0.000
 781.50;  -54.000;  -54.000;    0.000
 781.82;   43.000;   43.000;    0.000
 782.15;  -52.000;  -52.000;    0.000
 782.47;  -53.000;  -53.000;    0.000
 782.80;  -37.000;  -37.000;    0.000
 783.12;  -41.000;  -41.000;    0.000
 783.45;    7.000;    7.000;    0.000
 783.77;   16.000;   16.000;    0.000
 784.10;  -69.000;  -69.000;    0.000
 784.42;  -38.000;  -38.000;    0.000
 784.75;    7.000;    7.000;    0.000
 785.07;  -70.000;  -70.000;    0.000
 785.39;  -39.000;  -39.000;    0.000
 785.72;  -94.000;  -94.000;    0.000
 786.04;  132.000;  132.000;    0.000
 786.37;   24.000;   24.000;    0.000
 786.69;   38.000;   38.000;    0.000
 787.02;    1.000;    1.000;    0.000
 787.34;   20.000;   20.000;    0.000
 787.67;   40.000;   40.000;    0.000
 787.99;  -77.000;  -77.000;    0.000
 788.32;  -41.000;  -41.000;    0.000
 788.64;  -48.000;  -48.000;    0.000
 788.96;   60.000;   60.000;    0.000
 789.29;  -13.000;  -13.000;    0.000
 789.61;   40.000;   40.000;    0.000
 789.94;  -41.000;  -41.000;    0.000
 790.26;  -26.000;  -26.000;    0.000
 790.59;  -37.000;  -37.000;    0.000
 790.91;    6.000;    6.000;    0.000
 791.23;    3.000;    3.000;    0.000
 791.56;  -16.000;  -16.000;    0.000
 791.88;  -32.000;  -32.000;    0.000
 792.21;  -80.000;  -80.000;    0.000
 792.53;   28.000;   28.000;    0.000
 792.86;    8.000;    8.000;    0.000
 793.18;   49.000;   49.000;    0.000
 793.50;  -76.000;  -76.000;    0.000
 793.83;   35.000;   35.000;    0.000
 794.15;   36.000;   36.000;    0.000
 794.48;   19.000;   19.000;    0.000
 794.80; -165.000; -165.000;    0.000
 795.13;    5.000;    5.000;    0.000
 795.45;   50.000;   50.000;    0.000
 795.77;  -65.000;  -65.000;    0.000
 796.10;   74.000;   74.000;    0.000
 796.42;  -13.000;  -13.000;    0.000
 796.75;  -43.000;  -43.000;    0.000
 797.07;   40.000;   40.000;    0.000
 797.39;    8.000;    8.000;    0.000
 797.72;   12.000;   12.000;    0.000
 798.04;  -28.000;  -28.000;    0.000
 798.37;   38.000;   38.000;    0.000
 798.69;  -14.000;  -14.000;    0.000
 799.01;  -35.000;  -35.000;    0.000
 799.34;  -54.000;  -54.000;    0.000
 799.66;   11.000;   11.000;    0.000
 799.99;  -95.000;  -95.000;    0.000
 800.31;   18.000;   18.000;    0.000
 800.63;  -43.000;  -43.000;    0.000
 800.96;  -92.000;  -92.000;    0.000
 801.28;  -40.000;  -40.000;    0.000
 801.61;   32.000;   32.000;    0.000
 801.93;  -75.000;  -75.000;    0.000
 802.25;  -78.000;  -78.000;    0.000
 802.58;   20.000;   20.000;    0.000
 802.90;    3.000;    3.000;    0.000
 803.23;   30.000;   30.000;    0.000
 803.55;  -70.000;  -70.000;    0.000
 803.87;    3.000;    3.000;    0.000
 804.20;  -39.000;  -39.000;    0.000
 804.52;   42.000;   42.000;    0.000
 804.84;   30.000;   30.000;    0.000
 805.17;  -63.000;  -63.000;    0.000
 805.49;  -15.000;  -15.000;    0.000
 805.82;  -49.000;  -49.000;    0.000
 806.14;   54.000;   54.000;    0.000
 806.46;  -91.000;  -91.000;    0.000
 806.79;   10.000;   10.000;    0.000
 807.11;   81.000;   81.000;    0.000
 807.43;  -13.000;  -13.000;    0.000
 807.76;   -1.000;   -1.000;    0.000
 808.08;   70.000;   70.000;    0.000
 808.40;   -9.000;   -9.000;    0.000
 808.73;   34.000;   34.000;    0.000
 809.05;   32.000;   32.000;    0.000
 809.38;  -47.000;  -47.000;    0.000
 809.70;   77.000;   77.000;    0.000
 810.02;   57.000;   57.000;    0.000
 810.35;  -23.000;  -23.000;    0.000
 810.67;  -11.000;  -11.000;    0.000
 810.99;  -23.000;  -23.000;    0.000
 811.32;  -12.000;  -12.000;    0.000
 811.64;    5.000;    5.000;    0.000
 811.96; -106.000; -106.000;    0.000
 812.29;    9.000;    9.000;    0.000
 812.61;   20.000;   20.000;    0.000
 812.93;  -44.000;  -44.000;    0.000
 813.26;  -96.000;  -96.000;    0.000
 813.58;  -31.000;  -31.000;    0.000
 813.90;  -14.000;  -14.000;    0.000
 814.23;  -34.000;  -34.000;    0.000
 814.55;    5.000;    5.000;    0.000
 814.87;   -4.000;   -4.000;    0.000
 815.20;  -28.000;  -28.000;    0.000
 815.52;   45.000;   45.000;    0.000
 815.84;  -42.000;  -42.000;    0.000
 816.17;  -45.000;  -45.000;    0.000
 816.49;  -35.000;  -35.000;    0.000
 816.81;  -10.000;  -10.000;    0.000
 817.14;  -50.000;  -50.000;    0.000
 817.46;   41.000;   41.000;    0.000
 817.78;   -9.000;   -9.000;    0.000
 818.11;    5.000;    5.000;    0.000
 818.43;  -10.000;  -10.000;    0.000
 818.75;   -7.000;   -7.000;    0.000
 819.08;   -4.000;   -4.000;    0.000
 819.40;  -44.000;  -44.000;    0.000
 819.72;  -54.000;  -54.000;    0.000
 820.04;  -65.000;  -65.000;    0.000
 820.37;   -2.000;   -2.000;    0.000
 820.69;   -8.000;   -8.000;    0.000
 821.01;   41.000;   41.000;    0.000
 821.34;  -25.000;  -25.000;    0.000
 821.66;   -5.000;   -5.000;    0.000
 821.98;   19.000;   19.000;    0.000
 822.31;  -39.000;  -39.000;    0.000
 822.63;   -3.000;   -3.000;    0.000
 822.95;   49.000;   49.000;    0.000
 823.27;   18.000;   18.000;    0.000
 823.60;   -9.000;   -9.000;    0.000
 823.92;   57.000;   57.000;    0.000
 824.24;   58.000;   58.000;    0.000
 824.57;  -35.000;  -35.000;    0.000
 824.89;   26.000;   26.000;    0.000
 825.21;  -10.000;  -10.000;    0.000
 825.53;  -68.000;  -68.000;    0.000
 825.86;   27.000;   27.000;    0.000
 826.18;  -26.000;  -26.000;    0.000
 826.50;  -61.000;  -61.000;    0.000
 826.83;   -4.000;   -4.000;    0.000
 827.15;  -74.000;  -74.000;    0.000
 827.47;   33.000;   33.000;    0.000
 827.79;  -53.000;  -53.000;    0.000
 828.12;  -91.000;  -91.000;    0.000
 828.44;  -36.000;  -36.000;    0.000
 828.76;  -64.000;  -64.000;    0.000
 829.09;   63.000;   63.000;    0.000
 829.41;    1.000;    1.000;    0.000
 829.73;  -57.000;  -57.000;    0.000
 830.05;  -35.000;  -35.000;    0.000
 830.38;   30.000;   30.000;    0.000
 830.70;    5.000;    5.000;    0.000
 831.02;  -79.000;  -79.000;    0.000
 831.34;  -49.000;  -49.000;    0.000
 831.67;   -5.000;   -5.000;    0.000
 831.99;   24.000;   24.000;    0.000
 832.31;  -59.000;  -59.000;    0.000
 832.63;   42.000;   42.000;    0.000
 832.96;  -40.000;  -40.000;    0.000
 833.28;  -53.000;  -53.000;    0.000
 833.60;  -22.000;  -22.000;    0.000
 833.92;   -8.000;   -8.000;    0.000
 834.25;   -7.000;   -7.000;    0.000
 834.57;  -19.000;  -19.000;    0.000
 834.89;  -42.000;  -42.000;    0.000
 835.21;   36.000;   36.000;    0.000
 835.54;  -44.000;  -44.000;    0.000
 835.86;  -20.000;  -20.000;    0.000
 836.18;   -1.000;   -1.000;    0.000
 836.50;   -2.000;   -2.000;    0.000
 836.83;  -94.000;  -94.000;    0.000
 837.15;  -23.000;  -23.000;    0.000
 837.47;   30.000;   30.000;    0.000
 837.79; -115.000; -115.000;    0.000
 838.11;   13.000;   13.000;    0.000
 838.44;  -54.000;  -54.000;    0.000
 838.76; -117.000; -117.000;    0.000
 839.08;   -2.000;   -2.000;    0.000
 839.40;  -33.000;  -33.000;    0.000
 839.73;  -86.000;  -86.000;    0.000
 840.05;  -59.000;  -59.000;    0.000
 840.37;  -75.000;  -75.000;    0.000
 840.69;  -83.000;  -83.000;    0.000
 841.01;  -61.000;  -61.000;    0.000
 841.34;  -25.000;  -25.000;    0.000
 841.66;    8.000;    8.000;    0.000
 841.98;   -5.000;   -5.000;    0.000
 842.30;  -50.000;  -50.000;    0.000
 842.63;  -64.000;  -64.000;    0.000
 842.95;   -3.000;   -3.000;    0.000
 843.27;   -6.000;   -6.000;    0.000
 843.59;  -11.000;  -11.000;    0.000
 843.91;   31.000;   31.000;    0.000
 844.24;  113.000;  113.000;    0.000
 844.56;  -27.000;  -27.000;    0.000
 844.88;  -52.000;  -52.000;    0.000
 845.20;   17.000;   17.000;    0.000
 845.52;  -37.000;  -37.000;    0.000
 845.85;   23.000;   23.000;    0.000
 846.17;  -28.000;  -28.000;    0.000
 846.49;  -12.000;  -12.000;    0.000
 846.81;  -62.000;  -62.000;    0.000
 847.13;   14.000;   14.000;    0.000
 847.46;  -51.000;  -51.000;    0.000
 847.78;  -30.000;  -30.000;    0.000
 848.10;  -43.000;  -43.000;    0.000
 848.42;   59.000;   59.000;    0.000
 848.74;  -50.000;  -50.000;    0.000
 849.06; -107.000; -107.000;    0.000
 849.39;   10.000;   10.000;    0.000
 849.71;  -19.000;  -19.000;    0.000
 850.03;  -43.000;  -43.000;    0.000
 850.35;   45.000;   45.000;    0.000
 850.67;  -94.000;  -94.000;    0.000
 850.99;   -9.000;   -9.000;    0.000
 851.32;  -68.000;  -68.000;    0.000
 851.64;  -31.000;  -31.000;    0.000
 851.96;   -8.000;   -8.000;    0.000
 852.28; -123.000; -123.000;    0.000
 852.60;  -35.000;  -35.000;    0.000
 852.92;   34.000;   34.000;    0.000
 853.25;  -74.000;  -74.000;    0.000
 853.57;   46.000;   46.000;    0.000
 853.89; -106.000; -106.000;    0.000
 854.21;  -53.000;  -53.000;    0.000
 854.53;   34.000;   34.000;    0.000
 854.85;  -91.000;  -91.000;    0.000
 855.18;   68.000;   68.000;    0.000
 855.50;   -5.000;   -5.000;    0.000
 855.82;  -53.000;  -53.000;    0.000
 856.14;  -75.000;  -75.000;    0.000
 856.46;  -14.000;  -14.000;    0.000
 856.78;  -78.000;  -78.000;    0.000
 857.10;   43.000;   43.000;    0.000
 857.43;   22.000;   22.000;    0.000
 857.75;  -20.000;  -20.000;    0.000
 858.07;  -33.000;  -33.000;    0.000
 858.39;  -14.000;  -14.000;    0.000
 858.71;  -74.000;  -74.000;    0.000
 859.03;   20.000;   20.000;    0.000
 859.35;    4.000;    4.000;    0.000
 859.68;  -65.000;  -65.000;    0.000
 860.00; -105.000; -105.000;    0.000
 860.32;   -4.000;   -4.000;    0.000
 860.64;    2.000;    2.000;    0.000
 860.96;  -73.000;  -73.000;    0.000
 861.28;   16.000;   16.000;    0.000
 861.60;  -21.000;  -21.000;    0.000
 861.92;  -54.000;  -54.000;    0.000
 862.25;  -52.000;  -52.000;    0.000
 862.57;  -16.000;  -16.000;    0.000
 862.89;   49.000;   49.000;    0.000
 863.21;  -44.000;  -44.000;    0.000
 863.53;   46.000;   46.000;    0.000
 863.85;  -40.000;  -40.000;    0.000
 864.17;   33.000;   33.000;    0.000
 864.49;  -31.000;  -31.000;    0.000
 864.82;  -43.000;  -43.000;    0.000
 865.14;   41.000;   41.000;    0.000
 865.46;  -37.000;  -37.000;    0.000
 865.78;  -73.000;  -73.000;    0.000
 866.10;    4.000;    4.000;    0.000
 866.42;   23.000;   23.000;    0.000
 866.74;   42.000;   42.000;    0.000
 867.06;   14.000;   14.000;    0.000
 867.38;  -13.000;  -13.000;    0.000
 867.70;   40.000;   40.000;    0.000
 868.03;  -61.000;  -61.000;    0.000
 868.35;  -59.000;  -59.000;    0.000
 868.67;  -22.000;  -22.000;    0.000
 868.99;  -40.000;  -40.000;    0.000
 869.31;  -17.000;  -17.000;    0.000
 869.63;  -74.000;  -74.000;    0.000
 869.95;  -64.000;  -64.000;    0.000
 870.27;   -3.000;   -3.000;    0.000
 870.59;  -75.000;  -75.000;    0.000
 870.91;  -40.000;  -40.000;    0.000
 871.23;   18.000;   18.000;    0.000
 871.56;   14.000;   14.000;    0.000
 871.88;   38.000;   38.000;    0.000
 872.20;   21.000;   21.000;    0.000
 872.52;   17.000;   17.000;    0.000
 872.84;  -45.000;  -45.000;    0.000
 873.16;   10.000;   10.000;    0.000
 873.48; -103.000; -103.000;    0.000
 873.80;  -58.000;  -58.000;    0.000
 874.12;  -93.000;  -93.000;    0.000
 874.44;   47.000;   47.000;    0.000
 874.76;  -17.000;  -17.000;    0.000
 875.08;  -74.000;  -74.000;    0.000
 875.40;  -49.000;  -49.000;    0.000
 875.72;  -67.000;  -67.000;    0.000
 876.04; -146.000; -146.000;    0.000
 876.37;  -59.000;  -59.000;    0.000
 876.69;  -55.000;  -55.000;    0.000
 877.01;    3.000;    3.000;    0.000
 877.33;   -5.000;   -5.000;    0.000
 877.65;  -44.000;  -44.000;    0.000
 877.97;  -67.000;  -67.000;    0.000
 878.29;  -88.000;  -88.000;    0.000
 878.61;   46.000;   46.000;    0.000
 878.93;   45.000;   45.000;    0.000
 879.25;  -14.000;  -14.000;    0.000
 879.57;  -80.000;  -80.000;    0.000
 879.89; -152.000; -152.000;    0.000
 880.21;   20.000;   20.000;    0.000
 880.53;  -43.000;  -43.000;    0.000
 880.85;  -38.000;  -38.000;    0.000
 881.17;  -40.000;  -40.000;    0.000
 881.49;   29.000;   29.000;    0.000
 881.81;  -64.000;  -64.000;    0.000
 882.13;  -58.000;  -58.000;    0.000
 882.45;  -39.000;  -39.000;    0.000
 882.77;  -51.000;  -51.000;    0.000
 883.09;  -35.000;  -35.000;    0.000
 883.41;  -19.000;  -19.000;    0.000
 883.73;  -59.000;  -59.000;    0.000
 884.05;  -86.000;  -86.000;    0.000
 884.37;  -73.000;  -73.000;    0.000
 884.70;   18.000;   18.000;    0.000
 885.02;   55.000;   55.000;    0.000
 885.34;  -68.000;  -68.000;    0.000
 885.66;   39.000;   39.000;    0.000
 885.98;   63.000;   63.000;    0.000
 886.30;  -85.000;  -85.000;    0.000
 886.62; -103.000; -103.000;    0.000
 886.94;  -88.000;  -88.000;    0.000
 887.26;  -55.000;  -55.000;    0.000
 887.58;    8.000;    8.000;    0.000
 887.90;  -11.000;  -11.000;    0.000
 888.22;    5.000;    5.000;    0.000
 888.54;    7.000;    7.000;    0.000
 888.86;  -33.000;  -33.000;    0.000
 889.18;   13.000;   13.000;    0.000
 889.50;   57.000;   57.000;    0.000
 889.82;   18.000;   18.000;    0.000
 890.14;  -42.000;  -42.000;    0.000
 890.46;   -5.000;   -5.000;    0.000
 890.78;  -83.000;  -83.000;    0.000
 891.10;  -12.000;  -12.000;    0.000
 891.42;  -37.000;  -37.000;    0.000
 891.74;   -8.000;   -8.000;    0.000
 892.06;  -48.000;  -48.000;    0.000
 892.38;  -80.000;  -80.000;    0.000
 892.70;  -24.000;  -24.000;    0.000
 893.01;  -37.000;  -37.000;    0.000
 893.33;  -98.000;  -98.000;    0.000
 893.65;   25.000;   25.000;    0.000
 893.97;   -2.000;   -2.000;    0.000
 894.29;  -91.000;  -91.000;    0.000
 894.61;  -36.000;  -36.000;    0.000
 894.93;  -26.000;  -26.000;    0.000
 895.25;   -3.000;   -3.000;    0.000
 895.57;  -64.000;  -64.000;    0.000
 895.89;   35.000;   35.000;    0.000
 896.21;  -21.000;  -21.000;    0.000
 896.53;  -53.000;  -53.000;    0.000
 896.85;  -86.000;  -86.000;    0.000
 897.17;    2.000;    2.000;    0.000
 897.49;  -83.000;  -83.000;    0.000
 897.81;   26.000;   26.000;    0.000
 898.13;   -3.000;   -3.000;    0.000
 898.45;  -27.000;  -27.000;    0.000
 898.77;  -90.000;  -90.000;    0.000
 899.09;  -31.000;  -31.000;    0.000
 899.41;  -24.000;  -24.000;    0.000
 899.73;  -11.000;  -11.000;    0.000
 900.05;   44.000;   44.000;    0.000
 900.37;   -5.000;   -5.000;    0.000
 900.69;  -38.000;  -38.000;    0.000
 901.01;  -84.000;  -84.000;    0.000
 901.32;   12.000;   12.000;    0.000
 901.64;   12.000;   12.000;    0.000
 901.96;  -13.000;  -13.000;    0.000
 902.28;   73.000;   73.000;    0.000
 902.60;  -49.000;  -49.000;    0.000
 902.92;  -12.000;  -12.000;    0.000
 903.24;  -27.000;  -27.000;    0.000
 903.56;  -62.000;  -62.000;    0.000
 903.88;  -90.000;  -90.000;    0.000
 904.20;  -64.000;  -64.000;    0.000
 904.52;   -3.000;   -3.000;    0.000
 904.84;  -87.000;  -87.000;    0.000
 905.16;  -32.000;  -32.000;    0.000
 905.48;  -83.000;  -83.000;    0.000
 905.80;  -53.000;  -53.000;    0.000
 906.11;  -19.000;  -19.000;    0.000
 906.43;  -50.000;  -50.000;    0.000
 906.75;   10.000;   10.000;    0.000
 907.07;   30.000;   30.000;    0.000
 907.39;   10.000;   10.000;    0.000
 907.71;   12.000;   12.000;    0.000
 908.03;   21.000;   21.000;    0.000
 908.35;  -44.000;  -44.000;    0.000
 908.67;  -57.000;  -57.000;    0.000
 908.99;  -28.000;  -28.000;    0.000
 909.31;  -36.000;  -36.000;    0.000
 909.62;  -12.000;  -12.000;    0.000
 909.94;  -14.000;  -14.000;    0.000
 910.26;   35.000;   35.000;    0.000
 910.58;   24.000;   24.000;    0.000
 910.90;  -19.000;  -19.000;    0.000
 911.22;  -72.000;  -72.000;    0.000
 911.54;   60.000;   60.000;    0.000
 911.86;  -22.000;  -22.000;    0.000
 912.18;  -13.000;  -13.000;    0.000
 912.50;  -15.000;  -15.000;    0.000
 912.81;  -71.000;  -71.000;    0.000
 913.13;  -36.000;  -36.000;    0.000
 913.45;   24.000;   24.000;    0.000
 913.77;   40.000;   40.000;    0.000
 914.09; -100.000; -100.000;    0.000
 914.41;   -7.000;   -7.000;    0.000
 914.73;   -7.000;   -7.000;    0.000
 915.05;   54.000;   54.000;    0.000
 915.36; -107.000; -107.000;    0.000
 915.68; -114.000; -114.000;    0.000
 916.00;   18.000;   18.000;    0.000
 916.32;  -59.000;  -59.000;    0.000
 916.64;  -24.000;  -24.000;    0.000
 916.96;  -37.000;  -37.000;    0.000
 917.28;   60.000;   60.000;    0.000
 917.60;  -47.000;  -47.000;    0.000
 917.91;  -56.000;  -56.000;    0.000
 918.23;  -10.000;  -10.000;    0.000
 918.55;  -77.000;  -77.000;    0.000
 918.87;  -26.000;  -26.000;    0.000
 919.19;  -60.000;  -60.000;    0.000
 919.51;  -92.000;  -92.000;    0.000
 919.83;   24.000;   24.000;    0.000
 920.14;  -74.000;  -74.000;    0.000
 920.46;  -46.000;  -46.000;    0.000
 920.78;  -28.000;  -28.000;    0.000
 921.10;   31.000;   31.000;    0.000
 921.42;  -20.000;  -20.000;    0.000
 921.74;    2.000;    2.000;    0.000
 922.06;   15.000;   15.000;    0.000
 922.37;  -81.000;  -81.000;    0.000
 922.69;  -14.000;  -14.000;    0.000
 923.01;   35.000;   35.000;    0.000
 923.33;  -39.000;  -39.000;    0.000
 923.65;  -71.000;  -71.000;    0.000
 923.97;  -28.000;  -28.000;    0.000
 924.28;  -46.000;  -46.000;    0.000
 924.60;   -8.000;   -8.000;    0.000
 924.92;  -28.000;  -28.000;    0.000
 925.24;  -41.000;  -41.000;    0.000
 925.56;  -63.000;  -63.000;    0.000
 925.88;  -29.000;  -29.000;    0.000
 926.19;   -7.000;   -7.000;    0.000
 926.51;   22.000;   22.000;    0.000
 926.83;  -35.000;  -35.000;    0.000
 927.15;   47.000;   47.000;    0.000
 927.47;  -75.000;  -75.000;    0.000
 927.78;  -39.000;  -39.000;    0.000
 928.10;   22.000;   22.000;    0.000
 928.42;  -53.000;  -53.000;    0.000
 928.74;   45.000;   45.000;    0.000
 929.06;  -19.000;  -19.000;    0.000
 929.38;   16.000;   16.000;    0.000
 929.69;   33.000;   33.000;    0.000
 930.01;   19.000;   19.000;    0.000
 930.33;  -29.000;  -29.000;    0.000
 930.65;   28.000;   28.000;    0.000
 930.97;  -30.000;  -30.000;    0.000
 931.28;  -12.000;  -12.000;    0.000
 931.60;  -64.000;  -64.000;    0.000
 931.92;  -33.000;  -33.000;    0.000
 932.24;  -72.000;  -72.000;    0.000
 932.56;  -42.000;  -42.000;    0.000
 932.87;  -98.000;  -98.000;    0.000
 933.19;   -3.000;   -3.000;    0.000
 933.51;  -22.000;  -22.000;    0.000
 933.83;  -67.000;  -67.000;    0.000
 934.15;  -57.000;  -57.000;    0.000
 934.46;   28.000;   28.000;    0.000
 934.78;  -19.000;  -19.000;    0.000
 935.10;   38.000;   38.000;    0.000
 935.42; -117.000; -117.000;    0.000
 935.73;   -9.000;   -9.000;    0.000
 936.05;   86.000;   86.000;    0.000
 936.37;   12.000;   12.000;    0.000
 936.69;    1.000;    1.000;    0.000
 937.01;   25.000;   25.000;    0.000
 937.32;  -50.000;  -50.000;    0.000
 937.64;  -34.000;  -34.000;    0.000
 937.96;  -84.000;  -84.000;    0.000
 938.28;    4.000;    4.000;    0.000
 938.59;   29.000;   29.000;    0.000
 938.91;  -30.000;  -30.000;    0.000
 939.23; -111.000; -111.000;    0.000
 939.55;  -95.000;  -95.000;    0.000
 939.86;  -84.000;  -84.000;    0.000
 940.18;   26.000;   26.000;    0.000
 940.50; -107.000; -107.000;    0.000
 940.82;   16.000;   16.000;    0.000
 941.13;   91.000;   91.000;    0.000
 941.45;  -19.000;  -19.000;    0.000
 941.77;    9.000;    9.000;    0.000
 942.09;   18.000;   18.000;    0.000
 942.40;  -58.000;  -58.000;    0.000
 942.72;   33.000;   33.000;    0.000
 943.04;   13.000;   13.000;    0.000
 943.36;    0.000;    0.000;    0.000
 943.67;  -21.000;  -21.000;    0.000
 943.99;  -12.000;  -12.000;    0.000
 944.31;  -89.000;  -89.000;    0.000
 944.63; -104.000; -104.000;    0.000
 944.94;  -80.000;  -80.000;    0.000
 945.26;  -31.000;  -31.000;    0.000
 945.58;  -42.000;  -42.000;    0.000
 945.90;  -55.000;  -55.000;    0.000
 946.21;  -84.000;  -84.000;    0.000
 946.53;  -25.000;  -25.000;    0.000
 946.85;  -61.000;  -61.000;    0.000
 947.17;  -64.000;  -64.000;    0.000
 947.48;  -23.000;  -23.000;    0.000
 947.80;  -13.000;  -13.000;    0.000
 948.12;  -12.000;  -12.000;    0.000
 948.43;   35.000;   35.000;    0.000
 948.75;  -16.000;  -16.000;    0.000
 949.07;   14.000;   14.000;    0.000
 949.39;   18.000;   18.000;    0.000
 949.70;  -41.000;  -41.000;    0.000
 950.02;   -2.000;   -2.000;    0.000
 950.34;  -11.000;  -11.000;    0.000
 950.65;  -33.000;  -33.000;    0.000
 950.97;  -22.000;  -22.000;    0.000
 951.29;   22.000;   22.000;    0.000
 951.61;   28.000;   28.000;    0.000
 951.92;   41.000;   41.000;    0.000
 952.24;  -51.000;  -51.000;    0.000
 952.56;   11.000;   11.000;    0.000
 952.87;  -30.000;  -30.000;    0.000
 953.19;  -32.000;  -32.000;    0.000
 953.51;  -22.000;  -22.000;    0.000
 953.82;   11.000;   11.000;    0.000
 954.14;  -61.000;  -61.000;    0.000
 954.46;   -9.000;   -9.000;    0.000
 954.77;  -41.000;  -41.000;    0.000
 955.09;  -35.000;  -35.000;    0.000
 955.41;  -67.000;  -67.000;    0.000
 955.73;  -42.000;  -42.000;    0.000
 956.04;  -79.000;  -79.000;    0.000
 956.36;   16.000;   16.000;    0.000
 956.68;  -20.000;  -20.000;    0.000
 956.99; -103.000; -103.000;    0.000
 957.31;   72.000;   72.000;    0.000
 957.63;  -75.000;  -75.000;    0.000
 957.94;   87.000;   87.000;    0.000
 958.26;    2.000;    2.000;    0.000
 958.58;   12.000;   12.000;    0.000
 958.89;  -74.000;  -74.000;    0.000
 959.21;  -36.000;  -36.000;    0.000
 959.53;   22.000;   22.000;    0.000
 959.84;   60.000;   60.000;    0.000
 960.16;    8.000;    8.000;    0.000
 960.48; -158.000; -158.000;    0.000
 960.79;   60.000;   60.000;    0.000
 961.11;  -36.000;  -36.000;    0.000
 961.43;  -44.000;  -44.000;    0.000
 961.74;   43.000;   43.000;    0.000
 962.06;   23.000;   23.000;    0.000
 962.38;  -11.000;  -11.000;    0.000
 962.69;  -52.000;  -52.000;    0.000
 963.01;  -73.000;  -73.000;    0.000
 963.32; -164.000; -164.000;    0.000
 963.64;  -95.000;  -95.000;    0.000
 963.96;    1.000;    1.000;    0.000
 964.27;  -77.000;  -77.000;    0.000
 964.59;  -96.000;  -96.000;    0.000
 964.91;  -51.000;  -51.000;    0.000
 965.22;    3.000;    3.000;    0.000
 965.54;   26.000;   26.000;    0.000
 965.86;    4.000;    4.000;    0.000
 966.17;  -59.000;  -59.000;    0.000
 966.49;  -41.000;  -41.000;    0.000
 966.80;  -27.000;  -27.000;    0.000
 967.12;  -39.000;  -39.000;    0.000
 967.44;  -45.000;  -45.000;    0.000
 967.75;  -31.000;  -31.000;    0.000
 968.07;  -37.000;  -37.000;    0.000
 968.39;  -77.000;  -77.000;    0.000
 968.70;  -16.000;  -16.000;    0.000
 969.02;  -18.000;  -18.000;    0.000
 969.33;   86.000;   86.000;    0.000
 969.65;  -30.000;  -30.000;    0.000
 969.97; -149.000; -149.000;    0.000
 970.28;  -28.000;  -28.000;    0.000
 970.60;  -26.000;  -26.000;    0.000
 970.92;  -13.000;  -13.000;    0.000
 971.23;   24.000;   24.000;    0.000
 971.55;  -28.000;  -28.000;    0.000
 971.86;   -9.000;   -9.000;    0.000
 972.18;   13.000;   13.000;    0.000
 972.50;  -27.000;  -27.000;    0.000
 972.81;   56.000;   56.000;    0.000
 973.13;  -15.000;  -15.000;    0.000
 973.44;  -36.000;  -36.000;    0.000
 973.76;   26.000;   26.000;    0.000
 974.08;   21.000;   21.000;    0.000
 974.39;   11.000;   11.000;    0.000
 974.71;    9.000;    9.000;    0.000
 975.02;  -55.000;  -55.000;    0.000
 975.34;   49.000;   49.000;    0.000
 975.65;   58.000;   58.000;    0.000
 975.97;  -88.000;  -88.000;    0.000
 976.29;  -38.000;  -38.000;    0.000
 976.60;  -69.000;  -69.000;    0.000
 976.92;   82.000;   82.000;    0.000
 977.23;    7.000;    7.000;    0.000
 977.55;  -33.000;  -33.000;    0.000
 977.87;  -15.000;  -15.000;    0.000
 978.18;  -77.000;  -77.000;    0.000
 978.50;  -65.000;  -65.000;    0.000
 978.81;   39.000;   39.000;    0.000
 979.13;   28.000;   28.000;    0.000
 979.44;    2.000;    2.000;    0.000
 979.76;   38.000;   38.000;    0.000
 980.08;  -17.000;  -17.000;    0.000
 980.39;  -44.000;  -44.000;    0.000
 980.71;    9.000;    9.000;    0.000
 981.02;  -63.000;  -63.000;    0.000
 981.34;   16.000;   16.000;    0.000
 981.65;  -54.000;  -54.000;    0.000
 981.97;  -97.000;  -97.000;    0.000
 982.28;  -25.000;  -25.000;    0.000
 982.60;   12.000;   12.000;    0.000
 982.92;  -12.000;  -12.000;    0.000
 983.23;  -48.000;  -48.000;    0.000
 983.55;   16.000;   16.000;    0.000
 983.86; -119.000; -119.000;    0.000
 984.18;   56.000;   56.000;    0.000
 984.49;  -25.000;  -25.000;    0.000
 984.81;  -74.000;  -74.000;    0.000
 985.12;   39.000;   39.000;    0.000
 985.44;  -15.000;  -15.000;    0.000
 985.75;  -19.000;  -19.000;    0.000
 986.07;  -10.000;  -10.000;    0.000
 986.38;  -22.000;  -22.000;    0.000
 986.70;  -16.000;  -16.000;    0.000
 987.02;   -8.000;   -8.000;    0.000
 987.33;  -29.000;  -29.000;    0.000
 987.65;  -12.000;  -12.000;    0.000
 987.96;  -53.000;  -53.000;    0.000
 988.28;  -69.000;  -69.000;    0.000
 988.59;   14.000;   14.000;    0.000
 988.91;    9.000;    9.000;    0.000
 989.22;  -14.000;  -14.000;    0.000
 989.54;  -31.000;  -31.000;    0.000
 989.85;   42.000;   42.000;    0.000
 990.17;   -4.000;   -4.000;    0.000
 990.48;  -23.000;  -23.000;    0.000
 990.80;  -30.000;  -30.000;    0.000
 991.11; -127.000; -127.000;    0.000
 991.43;  -84.000;  -84.000;    0.000
 991.74;  -74.000;  -74.000;    0.000
 992.06;   16.000;   16.000;    0.000
 992.37;   19.000;   19.000;    0.000
 992.69; -108.000; -108.000;    0.000
 993.00;  -68.000;  -68.000;    0.000
 993.32;  -52.000;  -52.000;    0.000
 993.63;   52.000;   52.000;    0.000
 993.95;   13.000;   13.000;    0.000
 994.26;  -20.000;  -20.000;    0.000
 994.58;   -5.000;   -5.000;    0.000
 994.89;  -22.000;  -22.000;    0.000
 995.21;  -61.000;  -61.000;    0.000
 995.52;  -25.000;  -25.000;    0.000
 995.84;  -99.000;  -99.000;    0.000
 996.15; -120.000; -120.000;    0.000
 996.47;   44.000;   44.000;    0.000
 996.78;  -14.000;  -14.000;    0.000
 997.10;    9.000;    9.000;    0.000
 997.41;   25.000;   25.000;    0.000
 997.73;  -25.000;  -25.000;    0.000
 998.04;   76.000;   76.000;    0.000
 998.36;   -2.000;   -2.000;    0.000
 998.67;  -55.000;  -55.000;    0.000
 998.99;  -82.000;  -82.000;    0.000
 999.30;   70.000;   70.000;    0.000
 999.61;   61.000;   61.000;    0.000
 999.93;  -19.000;  -19.000;    0.000
1000.24;   20.000;   20.000;    0.000
1000.56;  -23.000;  -23.000;    0.000
1000.87;   34.000;   34.000;    0.000
1001.19;  -23.000;  -23.000;    0.000
1001.50;  -56.000;  -56.000;    0.000
1001.82;  -58.000;  -58.000;    0.000
1002.13;   48.000;   48.000;    0.000
1002.45;  -59.000;  -59.000;    0.000
1002.76;    8.000;    8.000;    0.000
1003.07;  -18.000;  -18.000;    0.000
1003.39;  -48.000;  -48.000;    0.000
1003.70;   70.000;   70.000;    0.000
1004.02;  -38.000;  -38.000;    0.000
1004.33;   -8.000;   -8.000;    0.000
1004.65;   66.000;   66.000;    0.000
1004.96;    4.000;    4.000;    0.000
1005.28;  -60.000;  -60.000;    0.000
1005.59;  -77.000;  -77.000;    0.000
1005.90;  -51.000;  -51.000;    0.000
1006.22;  -95.000;  -95.000;    0.000
1006.53;    7.000;    7.000;    0.000
1006.85;   22.000;   22.000;    0.000
1007.16;   45.000;   45.000;    0.000
1007.48;  -11.000;  -11.000;    0.000
1007.79;   36.000;   36.000;    0.000
1008.10;  -60.000;  -60.000;    0.000
1008.42;  -26.000;  -26.000;    0.000
1008.73;  -27.000;  -27.000;    0.000
1009.05;  -42.000;  -42.000;    0.000
1009.36;  -20.000;  -20.000;    0.000
1009.68;  -51.000;  -51.000;    0.000
1009.99;   11.000;   11.000;    0.000
1010.30;   10.000;   10.000;    0.000
1010.62;  -33.000;  -33.000;    0.000
1010.93;  -73.000;  -73.000;    0.000
1011.25;   41.000;   41.000;    0.000
1011.56;   39.000;   39.000;    0.000
1011.87;   51.000;   51.000;    0.000
1012.19;  -33.000;  -33.000;    0.000
1012.50;    4.000;    4.000;    0.000
1012.82;  -18.000;  -18.000;    0.000
1013.13; -100.000; -100.000;    0.000
1013.44;  -65.000;  -65.000;    0.000
1013.76; -122.000; -122.000;    0.000
1014.07;    3.000;    3.000;    0.000
1014.39;  -45.000;  -45.000;    0.000
1014.70;   37.000;   37.000;    0.000
1015.01;    0.000;    0.000;    0.000
1015.33;    8.000;    8.000;    0.000
1015.64;    4.000;    4.000;    0.000
1015.96;  -83.000;  -83.000;    0.000
1016.27;  -65.000;  -65.000;    0.000
1016.58; -129.000; -129.000;    0.000
1016.90;  -92.000;  -92.000;    0.000
1017.21;   13.000;   13.000;    0.000
1017.52;   -9.000;   -9.000;    0.000
1017.84;  -61.000;  -61.000;    0.000
1018.15;  -50.000;  -50.000;    0.000
1018.47;   27.000;   27.000;    0.000
1018.78;   57.000;   57.000;    0.000
1019.09;  -23.000;  -23.000;    0.000
1019.41;   22.000;   22.000;    0.000
1019.72;  -34.000;  -34.000;    0.000
1020.03;  -54.000;  -54.000;    0.000
1020.35; -108.000; -108.000;    0.000
1020.66;   53.000;   53.000;    0.000
1020.97; -120.000; -120.000;    0.000
1021.29;  -59.000;  -59.000;    0.000
1021.60;  -76.000;  -76.000;    0.000
1021.92;   14.000;   14.000;    0.000
1022.23;   12.000;   12.000;    0.000
1022.54;  -12.000;  -12.000;    0.000
1022.86;  -46.000;  -46.000;    0.000
1023.17;  -38.000;  -38.000;    0.000
1023.48;  -48.000;  -48.000;    0.000
1023.80;  -48.000;  -48.000;    0.000
1024.11;   -7.000;   -7.000;    0.000
1024.42;  -11.000;  -11.000;    0.000
1024.74;   -4.000;   -4.000;    0.000
1025.05;  -86.000;  -86.000;    0.000
1025.36;  -17.000;  -17.000;    0.000
1025.68;  -65.000;  -65.000;    0.000
1025.99;  -80.000;  -80.000;    0.000
1026.30;  -12.000;  -12.000;    0.000
1026.62;  -96.000;  -96.000;    0.000
1026.93;  -42.000;  -42.000;    0.000
1027.24;  -67.000;  -67.000;    0.000
1027.56;  -90.000;  -90.000;    0.000
1027.87;  -11.000;  -11.000;    0.000
1028.18;   20.000;   20.000;    0.000
1028.50;   -2.000;   -2.000;    0.000
1028.81;  -41.000;  -41.000;    0.000
1029.12;   22.000;   22.000;    0.000
1029.44;  -31.000;  -31.000;    0.000
1029.75;   19.000;   19.000;    0.000
1030.06;   11.000;   11.000;    0.000
1030.37;   23.000;   23.000;    0.000
1030.69;   31.000;   31.000;    0.000
1031.00;  -20.000;  -20.000;    0.000
1031.31;  -72.000;  -72.000;    0.000
1031.63;   11.000;   11.000;    0.000
1031.94;   22.000;   22.000;    0.000
1032.25;  -39.000;  -39.000;    0.000
1032.57;  -94.000;  -94.000;    0.000
1032.88;  -95.000;  -95.000;    0.000
1033.19; -158.000; -158.000;    0.000
1033.51;  -32.000;  -32.000;    0.000
1033.82;  -49.000;  -49.000;    0.000
1034.13;    6.000;    6.000;    0.000
1034.44;   19.000;   19.000;    0.000
1034.76;  -16.000;  -16.000;    0.000
1035.07;  -80.000;  -80.000;    0.000
1035.38;   -5.000;   -5.000;    0.000
1035.70;   31.000;   31.000;    0.000
1036.01;   25.000;   25.000;    0.000
1036.32;  -30.000;  -30.000;    0.000
1036.63;   27.000;   27.000;    0.000
1036.95;  -48.000;  -48.000;    0.000
1037.26;  -43.000;  -43.000;    0.000
1037.57;  -79.000;  -79.000;    0.000
1037.88;   12.000;   12.000;    0.000
1038.20;  -42.000;  -42.000;    0.000
1038.51;  -29.000;  -29.000;    0.000
1038.82;    7.000;    7.000;    0.000
1039.14;   -6.000;   -6.000;    0.000
1039.45;  -80.000;  -80.000;    0.000
1039.76;  -16.000;  -16.000;    0.000
1040.07;  -22.000;  -22.000;    0.000
1040.39;   97.000;   97.000;    0.000
1040.70;   43.000;   43.000;    0.000
1041.01;   55.000;   55.000;    0.000
1041.32;  -50.000;  -50.000;    0.000
1041.64;    8.000;    8.000;    0.000
1041.95;  -41.000;  -41.000;    0.000
1042.26;  -45.000;  -45.000;    0.000
1042.57;  -42.000;  -42.000;    0.000
1042.89;  -98.000;  -98.000;    0.000
1043.20;   12.000;   12.000;    0.000
1043.51;   39.000;   39.000;    0.000
1043.82;  -32.000;  -32.000;    0.000
1044.14;   32.000;   32.000;    0.000
1044.45;    3.000;    3.000;    0.000
1044.76;    3.000;    3.000;    0.000
1045.07;  -34.000;  -34.000;    0.000
1045.38;  -63.000;  -63.000;    0.000
1045.70;  -70.000;  -70.000;    0.000
1046.01;   -5.000;   -5.000;    0.000
1046.32;  -18.000;  -18.000;    0.000
1046.63;   24.000;   24.000;    0.000
1046.95;  -75.000;  -75.000;    0.000
1047.26;  -62.000;  -62.000;    0.000
1047.57;   46.000;   46.000;    0.000
1047.88;  -90.000;  -90.000;    0.000
1048.20;  -82.000;  -82.000;    0.000
1048.51;   56.000;   56.000;    0.000
1048.82;    9.000;    9.000;    0.000
1049.13;   22.000;   22.000;    0.000
1049.44;   -9.000;   -9.000;    0.000
1049.76;   -2.000;   -2.000;    0.000
1050.07;  -82.000;  -82.000;    0.000
1050.38;  -22.000;  -22.000;    0.000
1050.69;  -45.000;  -45.000;    0.000
1051.00;   51.000;   51.000;    0.000
1051.32;   33.000;   33.000;    0.000
1051.63;   -4.000;   -4.000;    0.000
1051.94;  -65.000;  -65.000;    0.000
1052.25;  -19.000;  -19.000;    0.000
1052.56; -100.000; -100.000;    0.000
1052.88;  -22.000;  -22.000;    0.000
1053.19;   54.000;   54.000;    0.000
1053.50;  117.000;  117.000;    0.000
1053.81;  -13.000;  -13.000;    0.000
1054.12;   83.000;   83.000;    0.000
1054.44;  -25.000;  -25.000;    0.000
1054.75;  -92.000;  -92.000;    0.000
1055.06;    9.000;    9.000;    0.000
1055.37;  -27.000;  -27.000;    0.000
1055.68;  -38.000;  -38.000;    0.000
1055.99;  -93.000;  -93.000;    0.000
1056.31;  -50.000;  -50.000;    0.000
1056.62;  -76.000;  -76.000;    0.000
1056.93;  -63.000;  -63.000;    0.000
1057.24;  -30.000;  -30.000;    0.000
1057.55;  -16.000;  -16.000;    0.000
1057.86;  -54.000;  -54.000;    0.000
1058.18;  -34.000;  -34.000;    0.000
1058.49;  120.000;  120.000;    0.000
1058.80;  -35.000;  -35.000;    0.000
1059.11;   19.000;   19.000;    0.000
1059.42;    1.000;    1.000;    0.000
1059.73;  -98.000;  -98.000;    0.000
1060.05;  -62.000;  -62.000;    0.000
1060.36;   42.000;   42.000;    0.000
1060.67;  -32.000;  -32.000;    0.000
1060.98;   22.000;   22.000;    0.000
1061.29;   11.000;   11.000;    0.000
1061.60;  -48.000;  -48.000;    0.000
1061.91;   -9.000;   -9.000;    0.000
1062.23;   69.000;   69.000;    0.000
1062.54; -101.000; -101.000;    0.000
1062.85;  -35.000;  -35.000;    0.000
1063.16;  -22.000;  -22.000;    0.000
1063.47;  -35.000;  -35.000;    0.000
1063.78;  -69.000;  -69.000;    0.000
1064.09; -121.000; -121.000;    0.000
1064.41;  -31.000;  -31.000;    0.000
1064.72;  -96.000;  -96.000;    0.000
1065.03;  -99.000;  -99.000;    0.000
1065.34; -105.000; -105.000;    0.000
1065.65;  -38.000;  -38.000;    0.000
1065.96;   38.000;   38.000;    0.000
1066.27;    0.000;    0.000;    0.000
1066.58;  -44.000;  -44.000;    0.000
1066.90;   20.000;   20.000;    0.000
1067.21;  -24.000;  -24.000;    0.000
1067.52;  -41.000;  -41.000;    0.000
1067.83;  -21.000;  -21.000;    0.000
1068.14;   -4.000;   -4.000;    0.000
1068.45; -101.000; -101.000;    0.000
1068.76;   72.000;   72.000;    0.000
1069.07;  -95.000;  -95.000;    0.000
1069.38;  -10.000;  -10.000;    0.000
1069.70;   -3.000;   -3.000;    0.000
1070.01;  -14.000;  -14.000;    0.000
1070.32;   -7.000;   -7.000;    0.000
1070.63;  -57.000;  -57.000;    0.000
1070.94;   66.000;   66.000;    0.000
1071.25;  -55.000;  -55.000;    0.000
1071.56;  -64.000;  -64.000;    0.000
1071.87;   27.000;   27.000;    0.000
1072.18;  -23.000;  -23.000;    0.000
1072.49;   35.000;   35.000;    0.000
1072.81;  -72.000;  -72.000;    0.000
1073.12;   10.000;   10.000;    0.000
1073.43;  -23.000;  -23.000;    0.000
1073.74;   63.000;   63.000;    0.000
1074.05;  -85.000;  -85.000;    0.000
1074.36;  -70.000;  -70.000;    0.000
1074.67;  -20.000;  -20.000;    0.000
1074.98;   33.000;   33.000;    0.000
1075.29;  -37.000;  -37.000;    0.000
1075.60;  -86.000;  -86.000;    0.000
1075.91;   22.000;   22.000;    0.000
1076.22;  -28.000;  -28.000;    0.000
1076.53;  -62.000;  -62.000;    0.000
1076.85;  -46.000;  -46.000;    0.000
1077.16;  -28.000;  -28.000;    0.000
1077.47;  -69.000;  -69.000;    0.000
1077.78;  -41.000;  -41.000;    0.000
1078.09;  -75.000;  -75.000;    0.000
1078.40; -100.000; -100.000;    0.000
1078.71;  -48.000;  -48.000;    0.000
1079.02;   39.000;   39.000;    0.000
1079.33;  -38.000;  -38.000;    0.000
1079.64;  -12.000;  -12.000;    0.000
1079.95;  -18.000;  -18.000;    0.000
1080.26;  -59.000;  -59.000;    0.000
1080.57;  -66.000;  -66.000;    0.000
1080.88;   18.000;   18.000;    0.000
1081.19;  -26.000;  -26.000;    0.000
1081.50;   -8.000;   -8.000;    0.000
1081.81; -113.000; -113.000;    0.000
1082.12;  -26.000;  -26.000;    0.000
1082.43;  -13.000;  -13.000;    0.000
1082.74;   44.000;   44.000;    0.000
1083.06;  -34.000;  -34.000;    0.000
1083.37;   11.000;   11.000;    0.000
1083.68;  -55.000;  -55.000;    0.000
1083.99;  -37.000;  -37.000;    0.000
1084.30;   12.000;   12.000;    0.000
1084.61; -102.000; -102.000;    0.000
1084.92;    4.000;    4.000;    0.000
1085.23;  -68.000;  -68.000;    0.000
1085.54;   18.000;   18.000;    0.000
1085.85;  -55.000;  -55.000;    0.000
1086.16;   31.000;   31.000;    0.000
1086.47;  -13.000;  -13.000;    0.000
1086.78;   36.000;   36.000;    0.000
1087.09;   16.000;   16.000;    0.000
1087.40;  -41.000;  -41.000;    0.000
1087.71;  -45.000;  -45.000;    0.000
1088.02;  -62.000;  -62.000;    0.000
1088.33; -103.000; -103.000;    0.000
1088.64;   68.000;   68.000;    0.000
1088.95;  -57.000;  -57.000;    0.000
1089.26;   -2.000;   -2.000;    0.000
1089.57;    4.000;    4.000;    0.000
1089.88;    5.000;    5.000;    0.000
1090.19;   -9.000;   -9.000;    0.000
1090.50;  -48.000;  -48.000;    0.000
1090.81;  -70.000;  -70.000;    0.000
1091.12;  -26.000;  -26.000;    0.000
1091.43;  -28.000;  -28.000;    0.000
1091.74;  -34.000;  -34.000;    0.000
1092.05;  -41.000;  -41.000;    0.000
1092.36;  -39.000;  -39.000;    0.000
1092.67;  -26.000;  -26.000;    0.000
1092.98;  -58.000;  -58.000;    0.000
1093.29;  -30.000;  -30.000;    0.000
1093.60;  -68.000;  -68.000;    0.000
1093.91;  -16.000;  -16.000;    0.000
1094.22; -103.000; -103.000;    0.000
1094.53;   44.000;   44.000;    0.000
1094.84; -105.000; -105.000;    0.000
1095.15;  -55.000;  -55.000;    0.000
1095.46;   10.000;   10.000;    0.000
1095.76;  -58.000;  -58.000;    0.000
1096.07;  -46.000;  -46.000;    0.000
1096.38;   15.000;   15.000;    0.000
1096.69;  -77.000;  -77.000;    0.000
1097.00;  -38.000;  -38.000;    0.000
1097.31;   25.000;   25.000;    0.000
1097.62;  -92.000;  -92.000;    0.000
1097.93; -104.000; -104.000;    0.000
1098.24;   55.000;   55.000;    0.000
1098.55;  -31.000;  -31.000;    0.000
1098.86;  -18.000;  -18.000;    0.000
1099.17;   36.000;   36.000;    0.000
1099.48;  -13.000;  -13.000;    0.000
1099.79;  -72.000;  -72.000;    0.000
1100.10;  -88.000;  -88.000;    0.000
